# OpenSignals Text File Format. Version 1
# {"00:07:80:65:E0:11": {"position": 0, "device": "biosignalsplux", "device name": "00:07:80:65:E0:11", "device connection": "00:07:80:65:E0:11", "sampling rate": 200, "resolution": [16, 16, 16], "firmware version": 775, "comments": "", "keywords": "", "mode": 0, "sync interval": 2, "date": "2025-9-19", "time": "9:48:52.424", "channels": [1, 2, 3], "sensor": ["RIP", "XYZ", "XYZ"], "label": ["CH1", "CH2", "CH3"], "column": ["nSeq", "DI", "CH1", "CH2", "CH3"], "special": [{"SpO2": [80, 40, 5, 4, 3, 3]}, {"SpO2": [80, 40, 5, 4, 3, 3]}, {"SpO2": [80, 40, 5, 4, 3, 3]}, {"SpO2": [80, 40, 5, 4, 3, 3]}, {"SpO2": [80, 40, 5, 4, 3, 3]}, {"SpO2": [80, 40, 5, 4, 3, 3]}, {"SpO2": [80, 40, 5, 4, 3, 3]}, {"SpO2": [80, 40, 5, 4, 3, 3]}], "digital IO": [0, 1], "sleeve color": ["orange", "brown", ""]}}
# EndOfHeader
0	0	31820	32052	38132	
1	0	31826	32048	38112	
2	0	31828	32038	38152	
3	0	31840	32028	38152	
4	0	31845	32044	38112	
5	0	31856	32032	38120	
6	0	31864	32025	38136	
7	0	31864	32040	38125	
8	0	31872	32024	38112	
9	0	31888	32036	38120	
10	0	31888	32040	38120	
11	0	31898	32032	38116	
12	0	31912	32024	38116	
13	0	31916	32012	38128	
14	0	31924	32000	38125	
15	0	31936	32016	38092	
16	0	31944	32013	38108	
17	0	31952	32020	38125	
18	0	31956	32016	38124	
19	0	31969	32024	38164	
20	0	31976	32008	38112	
21	0	31984	32012	38108	
22	0	32004	32004	38148	
23	0	32008	31986	38144	
24	0	32012	31996	38116	
25	0	32028	32017	38124	
26	0	32040	32016	38120	
27	0	32040	32016	38140	
28	0	32066	32020	38136	
29	0	32073	32024	38120	
30	0	32084	32028	38116	
31	0	32096	32009	38128	
32	0	32100	32012	38140	
33	0	32116	32024	38120	
34	0	32128	32016	38124	
35	0	32140	32000	38160	
36	0	32156	32020	38116	
37	0	32168	32045	38112	
38	0	32180	32016	38128	
39	0	32188	32028	38124	
40	0	32200	32012	38140	
41	0	32216	32032	38168	
42	0	32232	32040	38104	
43	0	32240	32034	38121	
44	0	32260	31984	38120	
45	0	32269	31992	38124	
46	0	32284	31969	38136	
47	0	32304	31992	38105	
48	0	32320	31988	38113	
49	0	32333	31976	38112	
50	0	32352	32008	38116	
51	0	32365	31980	38124	
52	0	32380	31976	38117	
53	0	32400	32000	38136	
54	0	32416	31992	38144	
55	0	32428	31985	38108	
56	0	32444	31993	38136	
57	0	32460	31976	38140	
58	0	32480	31984	38104	
59	0	32496	31980	38112	
60	0	32512	31968	38144	
61	0	32524	32000	38124	
62	0	32552	31992	38104	
63	0	32564	31988	38140	
64	0	32576	31988	38152	
65	0	32602	32004	38120	
66	0	32617	32001	38108	
67	0	32636	31989	38140	
68	0	32652	31996	38108	
69	0	32669	31996	38128	
70	0	32684	32013	38108	
71	0	32704	31996	38121	
72	0	32724	32001	38108	
73	0	32743	31980	38124	
74	0	32756	31988	38132	
75	0	32780	31948	38124	
76	0	32800	31944	38148	
77	0	32817	31963	38112	
78	0	32836	31972	38108	
79	0	32858	31968	38138	
80	0	32868	31969	38108	
81	0	32892	31960	38120	
82	0	32912	31952	38084	
83	0	32932	31968	38125	
84	0	32952	31968	38124	
85	0	32976	31940	38132	
86	0	32992	31960	38124	
87	0	33012	31956	38136	
88	0	33032	31980	38144	
89	0	33057	31928	38116	
90	0	33072	31952	38120	
91	0	33080	31960	38116	
92	0	33120	31952	38120	
93	0	33136	31960	38120	
94	0	33160	31966	38116	
95	0	33188	31988	38128	
96	0	33208	31992	38132	
97	0	33232	31990	38133	
98	0	33248	31988	38112	
99	0	33273	31984	38112	
100	0	33296	31981	38136	
101	0	33320	31964	38136	
102	0	33346	31984	38116	
103	0	33368	31968	38124	
104	0	33392	31972	38128	
105	0	33420	31972	38096	
106	0	33436	31964	38116	
107	0	33468	31964	38112	
108	0	33488	31968	38092	
109	0	33516	31988	38092	
110	0	33536	31969	38108	
111	0	33568	31962	38140	
112	0	33592	31946	38140	
113	0	33612	31965	38116	
114	0	33640	31954	38096	
115	0	33660	31972	38120	
116	0	33681	31952	38149	
117	0	33712	31972	38112	
118	0	33728	31948	38084	
119	0	33760	31968	38128	
120	0	33780	31945	38144	
121	0	33817	31920	38128	
122	0	33828	31920	38116	
123	0	33858	31904	38124	
124	0	33884	31928	38096	
125	0	33904	31902	38108	
126	0	33929	31928	38108	
127	0	33949	31918	38108	
128	0	33976	31928	38132	
129	0	34000	31916	38145	
130	0	34024	31909	38124	
131	0	34032	31905	38096	
132	0	34068	31917	38080	
133	0	34092	31928	38076	
134	0	34112	31928	38088	
135	0	34137	31928	38096	
136	0	34160	31952	38080	
137	0	34181	31926	38150	
138	0	34204	31920	38108	
139	0	34224	31898	38104	
140	0	34248	31876	38120	
141	0	34264	31924	38104	
142	0	34292	31936	38072	
143	0	34304	31900	38116	
144	0	34336	31872	38116	
145	0	34356	31896	38116	
146	0	34376	31892	38129	
147	0	34396	31876	38116	
148	0	34412	31892	38148	
149	0	34432	31868	38112	
150	0	34456	31872	38104	
151	0	34468	31872	38096	
152	0	34490	31872	38112	
153	0	34516	31888	38113	
154	0	34528	31888	38108	
155	0	34545	31888	38132	
156	0	34568	31892	38104	
157	0	34580	31869	38108	
158	0	34600	31868	38125	
159	0	34624	31872	38108	
160	0	34636	31852	38076	
161	0	34652	31844	38120	
162	0	34672	31852	38100	
163	0	34688	31880	38112	
164	0	34708	31868	38108	
165	0	34724	31880	38100	
166	0	34736	31840	38136	
167	0	34752	31868	38116	
168	0	34770	31868	38128	
169	0	34784	31876	38117	
170	0	34792	31869	38116	
171	0	34816	31824	38124	
172	0	34832	31832	38120	
173	0	34844	31844	38124	
174	0	34860	31826	38116	
175	0	34880	31822	38120	
176	0	34892	31812	38116	
177	0	34900	31796	38128	
178	0	34905	31836	38108	
179	0	34924	31818	38128	
180	0	34936	31812	38120	
181	0	34944	31817	38136	
182	0	34952	31810	38137	
183	0	34976	31808	38117	
184	0	34977	31800	38112	
185	0	34996	31796	38104	
186	0	35008	31800	38088	
187	0	35012	31816	38104	
188	0	35028	31824	38124	
189	0	35036	31820	38109	
190	0	35044	31804	38100	
191	0	35056	31808	38097	
192	0	35064	31824	38108	
193	0	35076	31808	38068	
194	0	35080	31830	38080	
195	0	35096	31812	38136	
196	0	35097	31804	38116	
197	0	35108	31812	38148	
198	0	35116	31828	38124	
199	0	35124	31848	38096	
200	0	35136	31793	38128	
201	0	35136	31809	38104	
202	0	35140	31808	38084	
203	0	35152	31829	38100	
204	0	35156	31800	38128	
205	0	35160	31816	38092	
206	0	35172	31808	38140	
207	0	35176	31816	38096	
208	0	35184	31836	38104	
209	0	35188	31816	38112	
210	0	35192	31800	38121	
211	0	35192	31802	38104	
212	0	35196	31801	38120	
213	0	35208	31812	38100	
214	0	35204	31796	38096	
215	0	35209	31800	38108	
216	0	35208	31796	38116	
217	0	35220	31812	38116	
218	0	35224	31809	38112	
219	0	35220	31820	38112	
220	0	35220	31812	38092	
221	0	35220	31797	38108	
222	0	35224	31796	38112	
223	0	35224	31808	38104	
224	0	35216	31824	38108	
225	0	35228	31812	38088	
226	0	35220	31820	38128	
227	0	35224	31822	38121	
228	0	35220	31808	38108	
229	0	35228	31796	38140	
230	0	35216	31816	38084	
231	0	35217	31800	38116	
232	0	35213	31804	38128	
233	0	35216	31808	38112	
234	0	35208	31804	38112	
235	0	35200	31804	38104	
236	0	35200	31796	38080	
237	0	35193	31800	38105	
238	0	35192	31801	38104	
239	0	35184	31792	38116	
240	0	35172	31809	38116	
241	0	35172	31792	38117	
242	0	35172	31798	38089	
243	0	35160	31804	38125	
244	0	35153	31800	38124	
245	0	35144	31808	38120	
246	0	35144	31808	38112	
247	0	35128	31816	38104	
248	0	35125	31816	38116	
249	0	35120	31812	38124	
250	0	35104	31808	38112	
251	0	35080	31781	38092	
252	0	35088	31794	38148	
253	0	35080	31808	38120	
254	0	35064	31788	38132	
255	0	35056	31772	38110	
256	0	35044	31788	38092	
257	0	35036	31824	38080	
258	0	35016	31808	38124	
259	0	35012	31804	38080	
260	0	34992	31796	38096	
261	0	34984	31800	38116	
262	0	34972	31780	38116	
263	0	34952	31797	38092	
264	0	34940	31800	38096	
265	0	34932	31788	38128	
266	0	34916	31808	38096	
267	0	34896	31784	38120	
268	0	34884	31800	38112	
269	0	34868	31816	38100	
270	0	34856	31816	38080	
271	0	34840	31817	38104	
272	0	34824	31804	38136	
273	0	34796	31826	38128	
274	0	34792	31828	38100	
275	0	34776	31848	38136	
276	0	34752	31844	38113	
277	0	34737	31840	38108	
278	0	34712	31864	38052	
279	0	34696	31820	38116	
280	0	34688	31833	38096	
281	0	34660	31830	38125	
282	0	34648	31845	38104	
283	0	34628	31844	38144	
284	0	34608	31840	38124	
285	0	34584	31848	38112	
286	0	34564	31844	38096	
287	0	34540	31868	38116	
288	0	34520	31852	38096	
289	0	34500	31864	38084	
290	0	34480	31860	38084	
291	0	34448	31872	38068	
292	0	34432	31877	38112	
293	0	34408	31857	38104	
294	0	34388	31852	38136	
295	0	34364	31876	38109	
296	0	34340	31841	38100	
297	0	34324	31852	38112	
298	0	34297	31892	38101	
299	0	34272	31909	38116	
300	0	34248	31900	38108	
301	0	34220	31884	38136	
302	0	34200	31893	38136	
303	0	34172	31884	38092	
304	0	34145	31885	38132	
305	0	34124	31896	38124	
306	0	34100	31888	38116	
307	0	34076	31892	38124	
308	0	34048	31888	38104	
309	0	34024	31885	38136	
310	0	34004	31904	38088	
311	0	33976	31904	38116	
312	0	33956	31901	38132	
313	0	33920	31880	38120	
314	0	33896	31896	38116	
315	0	33880	31916	38116	
316	0	33844	31905	38116	
317	0	33821	31880	38112	
318	0	33792	31904	38136	
319	0	33764	31921	38116	
320	0	33740	31920	38092	
321	0	33716	31921	38132	
322	0	33697	31920	38104	
323	0	33664	31928	38116	
324	0	33644	31964	38105	
325	0	33616	31932	38144	
326	0	33592	31936	38124	
327	0	33564	31940	38132	
328	0	33540	31936	38144	
329	0	33512	31912	38120	
330	0	33480	31928	38128	
331	0	33460	31920	38084	
332	0	33432	31936	38100	
333	0	33416	31920	38088	
334	0	33377	31929	38096	
335	0	33361	31948	38104	
336	0	33336	31940	38111	
337	0	33312	31968	38140	
338	0	33284	31954	38105	
339	0	33261	31964	38092	
340	0	33232	31984	38096	
341	0	33216	31948	38092	
342	0	33189	31981	38088	
343	0	33165	31912	38108	
344	0	33146	31904	38104	
345	0	33128	31924	38108	
346	0	33092	31936	38100	
347	0	33076	31914	38113	
348	0	33052	31908	38104	
349	0	33028	31920	38108	
350	0	33000	31888	38124	
351	0	32985	31932	38100	
352	0	32960	31932	38096	
353	0	32936	31900	38088	
354	0	32916	31904	38120	
355	0	32889	31904	38112	
356	0	32865	31916	38120	
357	0	32856	31936	38122	
358	0	32832	31936	38100	
359	0	32801	31929	38080	
360	0	32788	31928	38116	
361	0	32764	31964	38088	
362	0	32744	31944	38122	
363	0	32724	31944	38108	
364	0	32704	31948	38140	
365	0	32688	31928	38096	
366	0	32664	31948	38120	
367	0	32636	31972	38084	
368	0	32624	31980	38116	
369	0	32604	31968	38064	
370	0	32588	31952	38116	
371	0	32565	31972	38084	
372	0	32548	31952	38104	
373	0	32528	31960	38136	
374	0	32512	31975	38124	
375	0	32492	31960	38074	
376	0	32473	31976	38088	
377	0	32464	31976	38092	
378	0	32440	31956	38120	
379	0	32424	31936	38128	
380	0	32408	31960	38112	
381	0	32388	31960	38112	
382	0	32376	31948	38101	
383	0	32352	31937	38096	
384	0	32340	31968	38116	
385	0	32324	31944	38112	
386	0	32312	31944	38072	
387	0	32288	31984	38096	
388	0	32276	31964	38124	
389	0	32256	31944	38096	
390	0	32244	31996	38080	
391	0	32236	31972	38108	
392	0	32220	31988	38124	
393	0	32204	32000	38100	
394	0	32192	31969	38125	
395	0	32177	31996	38124	
396	0	32160	31984	38112	
397	0	32160	31996	38104	
398	0	32132	31996	38092	
399	0	32128	31992	38100	
400	0	32117	31969	38112	
401	0	32116	31980	38100	
402	0	32097	31964	38140	
403	0	32093	32004	38068	
404	0	32076	32001	38112	
405	0	32064	31976	38128	
406	0	32052	31956	38136	
407	0	32049	31988	38132	
408	0	32040	31972	38125	
409	0	32028	31964	38116	
410	0	32028	31968	38124	
411	0	32008	31976	38112	
412	0	32009	31964	38112	
413	0	32004	31965	38116	
414	0	32000	31980	38124	
415	0	31992	31984	38136	
416	0	31992	31960	38132	
417	0	31992	31945	38132	
418	0	31984	31995	38136	
419	0	31973	31978	38104	
420	0	31976	31992	38132	
421	0	31976	31976	38112	
422	0	31968	32008	38084	
423	0	31968	31984	38124	
424	0	31968	31968	38112	
425	0	31968	31986	38109	
426	0	31976	31980	38112	
427	0	31976	31940	38116	
428	0	31976	32000	38080	
429	0	31976	31996	38140	
430	0	31988	31972	38156	
431	0	31980	32012	38133	
432	0	32000	31972	38132	
433	0	31993	31980	38084	
434	0	31996	31956	38116	
435	0	32004	31976	38172	
436	0	32004	31984	38126	
437	0	32018	31977	38136	
438	0	32024	31976	38097	
439	0	32028	32000	38088	
440	0	32040	31993	38144	
441	0	32052	31981	38120	
442	0	32060	31980	38088	
443	0	32076	31960	38112	
444	0	32081	31982	38112	
445	0	32096	32008	38080	
446	0	32104	31984	38120	
447	0	32120	32000	38152	
448	0	32128	31984	38136	
449	0	32144	31976	38128	
450	0	32156	31976	38112	
451	0	32172	31964	38132	
452	0	32192	31984	38124	
453	0	32200	31992	38116	
454	0	32220	31964	38136	
455	0	32232	31964	38109	
456	0	32252	31952	38124	
457	0	32278	31946	38152	
458	0	32292	31944	38132	
459	0	32304	31952	38096	
460	0	32324	31944	38076	
461	0	32344	31960	38080	
462	0	32364	31960	38068	
463	0	32392	31976	38100	
464	0	32408	31980	38112	
465	0	32424	31964	38112	
466	0	32444	31996	38112	
467	0	32468	31956	38108	
468	0	32488	31957	38132	
469	0	32508	31968	38121	
470	0	32544	31988	38112	
471	0	32560	31950	38112	
472	0	32585	31962	38128	
473	0	32604	31968	38116	
474	0	32632	31964	38132	
475	0	32652	31925	38153	
476	0	32676	31957	38112	
477	0	32696	31952	38128	
478	0	32725	31952	38124	
479	0	32748	31944	38176	
480	0	32776	31920	38109	
481	0	32796	31913	38113	
482	0	32824	31936	38096	
483	0	32852	31904	38104	
484	0	32882	31936	38072	
485	0	32900	31916	38109	
486	0	32928	31924	38100	
487	0	32952	31936	38112	
488	0	32984	31929	38104	
489	0	33008	31936	38108	
490	0	33028	31904	38104	
491	0	33068	31924	38124	
492	0	33096	31930	38120	
493	0	33116	31916	38124	
494	0	33144	31920	38132	
495	0	33172	31928	38112	
496	0	33196	31964	38134	
497	0	33232	31936	38116	
498	0	33256	31976	38100	
499	0	33280	31945	38112	
500	0	33312	31928	38132	
501	0	33344	31936	38128	
502	0	33372	31930	38128	
503	0	33400	31936	38128	
504	0	33425	31932	38116	
505	0	33456	31932	38128	
506	0	33476	31932	38120	
507	0	33512	31952	38108	
508	0	33544	31952	38124	
509	0	33568	31940	38124	
510	0	33604	31948	38136	
511	0	33632	31944	38116	
512	0	33664	31900	38129	
513	0	33692	31920	38104	
514	0	33724	31928	38124	
515	0	33753	31940	38140	
516	0	33780	31929	38120	
517	0	33812	31920	38125	
518	0	33840	31896	38104	
519	0	33876	31901	38100	
520	0	33904	31892	38082	
521	0	33940	31896	38112	
522	0	33973	31900	38108	
523	0	34000	31876	38104	
524	0	34036	31912	38104	
525	0	34068	31904	38104	
526	0	34092	31904	38096	
527	0	34128	31904	38104	
528	0	34156	31908	38088	
529	0	34188	31865	38132	
530	0	34229	31882	38116	
531	0	34256	31912	38068	
532	0	34297	31872	38116	
533	0	34324	31852	38112	
534	0	34360	31864	38124	
535	0	34392	31872	38092	
536	0	34425	31828	38128	
537	0	34461	31836	38132	
538	0	34488	31824	38140	
539	0	34528	31832	38104	
540	0	34565	31836	38112	
541	0	34596	31857	38105	
542	0	34624	31820	38108	
543	0	34670	31816	38117	
544	0	34702	31822	38108	
545	0	34740	31849	38093	
546	0	34764	31824	38116	
547	0	34800	31829	38096	
548	0	34844	31801	38092	
549	0	34872	31795	38104	
550	0	34912	31772	38116	
551	0	34948	31784	38080	
552	0	34980	31788	38116	
553	0	35012	31804	38100	
554	0	35048	31784	38116	
555	0	35088	31800	38112	
556	0	35124	31768	38096	
557	0	35152	31800	38109	
558	0	35185	31808	38116	
559	0	35216	31796	38108	
560	0	35256	31796	38092	
561	0	35296	31808	38065	
562	0	35328	31776	38100	
563	0	35360	31756	38120	
564	0	35396	31757	38088	
565	0	35432	31748	38112	
566	0	35460	31724	38140	
567	0	35493	31740	38088	
568	0	35540	31756	38104	
569	0	35572	31733	38132	
570	0	35604	31736	38108	
571	0	35640	31740	38109	
572	0	35668	31752	38116	
573	0	35700	31728	38112	
574	0	35740	31716	38080	
575	0	35768	31736	38128	
576	0	35808	31728	38124	
577	0	35836	31716	38105	
578	0	35876	31700	38112	
579	0	35908	31684	38104	
580	0	35940	31684	38084	
581	0	35969	31684	38116	
582	0	36004	31700	38117	
583	0	36036	31689	38112	
584	0	36064	31708	38108	
585	0	36100	31688	38132	
586	0	36128	31702	38100	
587	0	36160	31712	38080	
588	0	36192	31696	38112	
589	0	36224	31680	38128	
590	0	36252	31664	38100	
591	0	36284	31688	38092	
592	0	36316	31694	38076	
593	0	36348	31680	38108	
594	0	36380	31684	38132	
595	0	36416	31676	38120	
596	0	36436	31644	38117	
597	0	36472	31652	38100	
598	0	36500	31661	38104	
599	0	36536	31680	38108	
600	0	36564	31676	38096	
601	0	36592	31684	38108	
602	0	36620	31674	38124	
603	0	36650	31656	38120	
604	0	36688	31656	38112	
605	0	36708	31664	38093	
606	0	36736	31650	38112	
607	0	36772	31657	38128	
608	0	36800	31672	38100	
609	0	36832	31652	38100	
610	0	36852	31664	38124	
611	0	36888	31664	38088	
612	0	36920	31633	38096	
613	0	36948	31644	38080	
614	0	36984	31657	38096	
615	0	37008	31648	38100	
616	0	37028	31644	38084	
617	0	37064	31636	38116	
618	0	37092	31644	38109	
619	0	37120	31644	38089	
620	0	37152	31648	38116	
621	0	37184	31637	38105	
622	0	37196	31657	38068	
623	0	37236	31648	38112	
624	0	37256	31636	38136	
625	0	37280	31624	38072	
626	0	37312	31632	38129	
627	0	37340	31644	38080	
628	0	37364	31648	38088	
629	0	37396	31628	38092	
630	0	37416	31620	38092	
631	0	37444	31620	38108	
632	0	37472	31636	38076	
633	0	37496	31640	38128	
634	0	37524	31612	38128	
635	0	37548	31634	38088	
636	0	37572	31624	38104	
637	0	37596	31652	38084	
638	0	37628	31640	38116	
639	0	37648	31633	38104	
640	0	37672	31624	38116	
641	0	37696	31629	38128	
642	0	37712	31637	38124	
643	0	37744	31616	38144	
644	0	37757	31640	38088	
645	0	37788	31624	38076	
646	0	37816	31644	38096	
647	0	37828	31632	38072	
648	0	37852	31617	38116	
649	0	37868	31616	38068	
650	0	37900	31628	38088	
651	0	37913	31632	38096	
652	0	37936	31609	38132	
653	0	37960	31632	38108	
654	0	37976	31637	38120	
655	0	37996	31632	38116	
656	0	38016	31660	38104	
657	0	38032	31628	38104	
658	0	38048	31625	38092	
659	0	38064	31616	38112	
660	0	38080	31616	38104	
661	0	38100	31638	38106	
662	0	38112	31648	38105	
663	0	38128	31632	38092	
664	0	38148	31612	38100	
665	0	38164	31636	38088	
666	0	38176	31644	38096	
667	0	38188	31644	38092	
668	0	38208	31621	38108	
669	0	38216	31628	38120	
670	0	38228	31612	38081	
671	0	38248	31636	38100	
672	0	38248	31617	38112	
673	0	38264	31629	38104	
674	0	38272	31636	38100	
675	0	38273	31634	38112	
676	0	38280	31624	38108	
677	0	38280	31640	38112	
678	0	38296	31640	38128	
679	0	38300	31632	38100	
680	0	38304	31632	38124	
681	0	38312	31624	38112	
682	0	38317	31628	38100	
683	0	38316	31648	38080	
684	0	38324	31624	38072	
685	0	38324	31616	38056	
686	0	38328	31628	38093	
687	0	38328	31630	38100	
688	0	38320	31628	38124	
689	0	38320	31624	38092	
690	0	38320	31612	38152	
691	0	38312	31624	38108	
692	0	38320	31628	38124	
693	0	38304	31636	38112	
694	0	38300	31628	38116	
695	0	38308	31620	38108	
696	0	38286	31620	38097	
697	0	38284	31617	38100	
698	0	38280	31624	38120	
699	0	38268	31624	38132	
700	0	38256	31630	38104	
701	0	38252	31636	38100	
702	0	38240	31633	38068	
703	0	38228	31624	38100	
704	0	38216	31633	38088	
705	0	38200	31630	38109	
706	0	38192	31620	38108	
707	0	38172	31621	38108	
708	0	38160	31617	38116	
709	0	38144	31632	38096	
710	0	38132	31636	38112	
711	0	38112	31632	38092	
712	0	38096	31616	38108	
713	0	38080	31632	38104	
714	0	38060	31616	38100	
715	0	38040	31636	38104	
716	0	38024	31629	38108	
717	0	37996	31632	38088	
718	0	37978	31632	38080	
719	0	37952	31625	38092	
720	0	37932	31636	38076	
721	0	37912	31617	38092	
722	0	37884	31644	38108	
723	0	37860	31624	38116	
724	0	37840	31616	38116	
725	0	37816	31620	38116	
726	0	37788	31616	38092	
727	0	37760	31644	38084	
728	0	37721	31632	38100	
729	0	37704	31636	38088	
730	0	37672	31632	38132	
731	0	37652	31640	38100	
732	0	37616	31624	38088	
733	0	37592	31624	38101	
734	0	37560	31628	38084	
735	0	37528	31621	38100	
736	0	37501	31644	38088	
737	0	37466	31641	38084	
738	0	37436	31648	38117	
739	0	37404	31621	38112	
740	0	37368	31649	38084	
741	0	37332	31644	38084	
742	0	37300	31648	38088	
743	0	37268	31644	38096	
744	0	37232	31668	38128	
745	0	37196	31640	38124	
746	0	37160	31636	38096	
747	0	37132	31628	38116	
748	0	37088	31632	38104	
749	0	37060	31640	38104	
750	0	37020	31644	38120	
751	0	36980	31633	38064	
752	0	36940	31633	38126	
753	0	36908	31640	38108	
754	0	36872	31644	38097	
755	0	36825	31656	38096	
756	0	36796	31658	38092	
757	0	36756	31669	38112	
758	0	36720	31664	38112	
759	0	36672	31656	38093	
760	0	36640	31656	38124	
761	0	36600	31656	38096	
762	0	36556	31664	38100	
763	0	36517	31660	38092	
764	0	36480	31672	38100	
765	0	36440	31681	38081	
766	0	36400	31656	38112	
767	0	36356	31645	38112	
768	0	36324	31672	38100	
769	0	36280	31694	38108	
770	0	36225	31716	38112	
771	0	36188	31700	38100	
772	0	36152	31692	38092	
773	0	36112	31680	38112	
774	0	36068	31656	38120	
775	0	36020	31681	38108	
776	0	35972	31700	38120	
777	0	35936	31685	38128	
778	0	35888	31696	38124	
779	0	35848	31716	38116	
780	0	35798	31744	38144	
781	0	35756	31764	38112	
782	0	35716	31744	38148	
783	0	35672	31752	38130	
784	0	35625	31765	38096	
785	0	35580	31756	38096	
786	0	35529	31753	38113	
787	0	35488	31742	38076	
788	0	35444	31752	38100	
789	0	35393	31748	38120	
790	0	35352	31768	38092	
791	0	35304	31796	38132	
792	0	35256	31792	38132	
793	0	35208	31784	38128	
794	0	35172	31800	38116	
795	0	35120	31797	38100	
796	0	35060	31804	38092	
797	0	35024	31788	38112	
798	0	34980	31796	38124	
799	0	34936	31780	38116	
800	0	34880	31816	38104	
801	0	34836	31796	38116	
802	0	34788	31876	38116	
803	0	34736	31860	38076	
804	0	34689	31852	38082	
805	0	34637	31856	38092	
806	0	34593	31856	38112	
807	0	34533	31852	38108	
808	0	34492	31860	38108	
809	0	34452	31872	38100	
810	0	34400	31884	38104	
811	0	34356	31852	38080	
812	0	34304	31856	38112	
813	0	34252	31904	38088	
814	0	34212	31897	38116	
815	0	34156	31913	38112	
816	0	34113	31917	38116	
817	0	34068	31916	38084	
818	0	34020	31888	38124	
819	0	33980	31884	38120	
820	0	33924	31888	38088	
821	0	33876	31904	38096	
822	0	33824	31900	38096	
823	0	33784	31916	38116	
824	0	33730	31940	38100	
825	0	33688	31944	38080	
826	0	33644	31940	38081	
827	0	33600	31908	38112	
828	0	33550	31936	38092	
829	0	33504	31952	38120	
830	0	33456	31956	38096	
831	0	33416	31952	38096	
832	0	33368	31940	38108	
833	0	33324	31928	38112	
834	0	33288	31956	38105	
835	0	33236	31946	38117	
836	0	33193	31977	38116	
837	0	33152	31945	38100	
838	0	33104	31940	38109	
839	0	33060	31928	38088	
840	0	33016	31932	38112	
841	0	32980	31928	38100	
842	0	32936	31948	38084	
843	0	32888	31925	38104	
844	0	32852	31948	38080	
845	0	32800	31929	38084	
846	0	32772	31916	38116	
847	0	32717	31968	38108	
848	0	32681	31944	38120	
849	0	32640	31968	38141	
850	0	32605	31937	38112	
851	0	32561	31972	38108	
852	0	32520	31957	38120	
853	0	32484	31936	38092	
854	0	32448	31952	38104	
855	0	32400	31964	38104	
856	0	32368	31968	38092	
857	0	32320	31984	38100	
858	0	32292	31944	38109	
859	0	32248	31968	38108	
860	0	32204	31993	38120	
861	0	32165	32012	38060	
862	0	32128	32001	38116	
863	0	32093	31988	38140	
864	0	32048	31972	38112	
865	0	32016	31976	38124	
866	0	31976	32009	38104	
867	0	31944	31992	38137	
868	0	31904	31980	38136	
869	0	31869	32013	38140	
870	0	31840	31984	38112	
871	0	31793	32004	38088	
872	0	31764	32012	38100	
873	0	31716	32000	38088	
874	0	31684	31996	38096	
875	0	31652	32012	38096	
876	0	31616	32020	38084	
877	0	31573	32017	38096	
878	0	31546	31992	38128	
879	0	31512	32004	38108	
880	0	31472	31997	38134	
881	0	31436	31986	38104	
882	0	31405	32000	38100	
883	0	31364	31978	38116	
884	0	31328	32017	38120	
885	0	31296	32005	38120	
886	0	31260	32024	38132	
887	0	31220	32000	38110	
888	0	31192	32000	38140	
889	0	31156	32032	38108	
890	0	31121	32024	38116	
891	0	31084	32032	38124	
892	0	31056	32032	38128	
893	0	31028	32028	38100	
894	0	30986	32028	38116	
895	0	30952	32024	38088	
896	0	30920	32012	38109	
897	0	30896	32032	38092	
898	0	30856	32012	38100	
899	0	30820	32013	38116	
900	0	30789	32016	38096	
901	0	30756	32016	38069	
902	0	30720	32048	38088	
903	0	30693	32044	38096	
904	0	30660	32020	38092	
905	0	30636	32020	38093	
906	0	30597	32036	38077	
907	0	30564	32041	38080	
908	0	30536	32032	38088	
909	0	30504	32032	38112	
910	0	30472	32032	38108	
911	0	30444	32016	38104	
912	0	30408	32032	38108	
913	0	30384	32024	38080	
914	0	30348	32040	38104	
915	0	30320	32033	38100	
916	0	30282	32040	38092	
917	0	30262	32044	38104	
918	0	30232	32048	38100	
919	0	30204	32029	38072	
920	0	30176	32032	38117	
921	0	30148	32032	38116	
922	0	30116	32024	38128	
923	0	30092	32024	38120	
924	0	30064	32012	38104	
925	0	30032	32016	38088	
926	0	30000	32044	38080	
927	0	29976	32020	38104	
928	0	29945	32040	38101	
929	0	29924	31996	38096	
930	0	29890	32016	38132	
931	0	29868	32016	38128	
932	0	29840	32008	38116	
933	0	29812	32004	38116	
934	0	29788	32012	38116	
935	0	29760	32028	38096	
936	0	29732	32036	38140	
937	0	29709	32032	38120	
938	0	29684	31997	38121	
939	0	29660	32032	38112	
940	0	29632	32024	38152	
941	0	29605	32000	38140	
942	0	29584	32016	38108	
943	0	29556	32016	38148	
944	0	29536	32008	38116	
945	0	29514	32032	38124	
946	0	29488	32016	38120	
947	0	29458	32033	38117	
948	0	29432	32020	38132	
949	0	29408	32026	38120	
950	0	29388	32020	38108	
951	0	29368	32024	38137	
952	0	29345	32016	38096	
953	0	29320	32016	38112	
954	0	29296	32012	38108	
955	0	29276	32016	38132	
956	0	29248	32025	38088	
957	0	29232	32028	38096	
958	0	29204	32048	38080	
959	0	29184	32045	38124	
960	0	29156	32028	38104	
961	0	29136	32008	38104	
962	0	29116	31977	38108	
963	0	29094	32016	38109	
964	0	29064	32020	38105	
965	0	29056	32016	38097	
966	0	29032	32012	38109	
967	0	29010	32032	38104	
968	0	28984	32020	38116	
969	0	28972	32010	38120	
970	0	28942	32024	38121	
971	0	28924	32028	38132	
972	0	28897	32024	38084	
973	0	28880	32020	38110	
974	0	28864	32020	38113	
975	0	28844	32008	38096	
976	0	28820	32013	38070	
977	0	28800	32017	38104	
978	0	28776	32024	38084	
979	0	28756	32028	38076	
980	0	28736	32012	38108	
981	0	28720	32004	38122	
982	0	28704	32028	38072	
983	0	28672	32020	38104	
984	0	28656	32024	38112	
985	0	28636	32020	38108	
986	0	28612	31992	38116	
987	0	28596	32021	38120	
988	0	28577	32005	38124	
989	0	28552	32005	38072	
990	0	28540	32000	38116	
991	0	28516	32024	38117	
992	0	28496	32016	38096	
993	0	28480	32032	38072	
994	0	28464	32032	38092	
995	0	28448	32009	38108	
996	0	28424	32000	38112	
997	0	28408	32012	38140	
998	0	28392	32013	38104	
999	0	28368	32024	38080	
1000	0	28356	32004	38096	
1001	0	28336	32033	38088	
1002	0	28320	32000	38100	
1003	0	28293	32012	38085	
1004	0	28280	32024	38112	
1005	0	28264	31992	38136	
1006	0	28248	32024	38096	
1007	0	28228	32016	38108	
1008	0	28208	32024	38088	
1009	0	28196	32016	38104	
1010	0	28176	32012	38116	
1011	0	28154	32000	38100	
1012	0	28144	32006	38104	
1013	0	28124	32000	38144	
1014	0	28104	32016	38116	
1015	0	28092	32028	38120	
1016	0	28084	32032	38092	
1017	0	28056	32008	38120	
1018	0	28040	32001	38064	
1019	0	28025	32008	38076	
1020	0	28012	32016	38088	
1021	0	27998	32008	38112	
1022	0	27981	31980	38085	
1023	0	27969	31996	38100	
1024	0	27949	32009	38132	
1025	0	27936	32025	38108	
1026	0	27924	32009	38088	
1027	0	27908	32004	38108	
1028	0	27884	31984	38120	
1029	0	27880	32000	38096	
1030	0	27872	32033	38112	
1031	0	27852	32000	38108	
1032	0	27840	31980	38120	
1033	0	27820	32016	38088	
1034	0	27816	32014	38120	
1035	0	27806	32032	38076	
1036	0	27800	31988	38116	
1037	0	27784	32005	38132	
1038	0	27776	32000	38108	
1039	0	27765	32000	38116	
1040	0	27753	32000	38096	
1041	0	27744	32020	38096	
1042	0	27732	32001	38096	
1043	0	27728	31992	38064	
1044	0	27712	32012	38096	
1045	0	27712	32013	38096	
1046	0	27697	31996	38116	
1047	0	27688	32024	38104	
1048	0	27684	32005	38094	
1049	0	27680	32052	38104	
1050	0	27668	32024	38120	
1051	0	27662	31992	38124	
1052	0	27656	31996	38128	
1053	0	27648	32016	38108	
1054	0	27640	32005	38116	
1055	0	27636	32004	38116	
1056	0	27628	31996	38124	
1057	0	27624	31996	38100	
1058	0	27620	32000	38112	
1059	0	27620	32009	38088	
1060	0	27608	31996	38124	
1061	0	27604	31992	38088	
1062	0	27600	31988	38108	
1063	0	27604	31996	38084	
1064	0	27592	31984	38096	
1065	0	27594	31980	38104	
1066	0	27588	32008	38120	
1067	0	27577	32000	38092	
1068	0	27582	31992	38100	
1069	0	27580	31996	38120	
1070	0	27580	32012	38120	
1071	0	27580	31992	38125	
1072	0	27576	32002	38104	
1073	0	27574	31993	38125	
1074	0	27564	31989	38116	
1075	0	27572	31984	38096	
1076	0	27569	32008	38125	
1077	0	27572	31981	38104	
1078	0	27564	32016	38088	
1079	0	27568	32024	38112	
1080	0	27568	32004	38092	
1081	0	27564	31976	38136	
1082	0	27553	32009	38104	
1083	0	27564	32020	38097	
1084	0	27556	32001	38096	
1085	0	27553	31980	38092	
1086	0	27560	31976	38104	
1087	0	27561	32008	38100	
1088	0	27549	31984	38092	
1089	0	27552	32008	38116	
1090	0	27553	32016	38124	
1091	0	27552	32008	38112	
1092	0	27556	32000	38112	
1093	0	27552	32012	38096	
1094	0	27556	31984	38124	
1095	0	27556	31984	38124	
1096	0	27552	32004	38108	
1097	0	27552	32000	38088	
1098	0	27552	32000	38092	
1099	0	27552	31996	38100	
1100	0	27552	32000	38120	
1101	0	27548	31992	38128	
1102	0	27552	31996	38076	
1103	0	27552	31968	38116	
1104	0	27548	31992	38096	
1105	0	27554	32000	38080	
1106	0	27553	31980	38092	
1107	0	27552	32006	38104	
1108	0	27556	31988	38136	
1109	0	27552	32013	38116	
1110	0	27564	32008	38096	
1111	0	27560	31997	38112	
1112	0	27560	31988	38120	
1113	0	27560	32000	38100	
1114	0	27564	32009	38117	
1115	0	27568	31988	38112	
1116	0	27568	31996	38112	
1117	0	27572	32010	38104	
1118	0	27568	32010	38108	
1119	0	27580	32004	38120	
1120	0	27576	32000	38104	
1121	0	27584	32024	38072	
1122	0	27588	32020	38080	
1123	0	27592	32045	38138	
1124	0	27592	32032	38084	
1125	0	27596	32020	38132	
1126	0	27597	32013	38134	
1127	0	27600	31996	38108	
1128	0	27612	32004	38092	
1129	0	27616	32020	38100	
1130	0	27620	31984	38136	
1131	0	27620	32004	38108	
1132	0	27625	31992	38116	
1133	0	27632	31976	38112	
1134	0	27640	31993	38104	
1135	0	27644	31976	38112	
1136	0	27645	32008	38116	
1137	0	27656	31988	38161	
1138	0	27666	32021	38100	
1139	0	27668	32013	38136	
1140	0	27672	32012	38132	
1141	0	27672	32024	38120	
1142	0	27676	32034	38116	
1143	0	27696	32013	38140	
1144	0	27700	32024	38148	
1145	0	27704	32036	38072	
1146	0	27708	32020	38108	
1147	0	27713	32009	38112	
1148	0	27720	31992	38096	
1149	0	27728	31981	38116	
1150	0	27728	32004	38108	
1151	0	27738	32000	38108	
1152	0	27748	31992	38132	
1153	0	27752	32008	38120	
1154	0	27762	32004	38088	
1155	0	27772	32017	38120	
1156	0	27776	32017	38108	
1157	0	27788	32016	38108	
1158	0	27788	32010	38080	
1159	0	27800	31996	38124	
1160	0	27805	32040	38120	
1161	0	27812	32032	38144	
1162	0	27820	32025	38112	
1163	0	27832	32005	38116	
1164	0	27840	31988	38108	
1165	0	27848	32000	38100	
1166	0	27857	32000	38132	
1167	0	27868	32004	38112	
1168	0	27873	32000	38096	
1169	0	27888	32024	38116	
1170	0	27897	32016	38090	
1171	0	27904	32016	38100	
1172	0	27912	31996	38144	
1173	0	27928	32008	38112	
1174	0	27936	32028	38120	
1175	0	27944	32009	38100	
1176	0	27952	32020	38116	
1177	0	27968	32008	38104	
1178	0	27973	32013	38148	
1179	0	27988	32028	38132	
1180	0	27996	32032	38096	
1181	0	27999	31994	38108	
1182	0	28020	32008	38108	
1183	0	28036	32020	38096	
1184	0	28044	32024	38112	
1185	0	28052	32020	38096	
1186	0	28065	32004	38108	
1187	0	28072	32012	38112	
1188	0	28088	32016	38128	
1189	0	28093	32016	38096	
1190	0	28104	32008	38108	
1191	0	28124	32012	38104	
1192	0	28128	32028	38096	
1193	0	28141	32009	38096	
1194	0	28160	32024	38128	
1195	0	28168	32024	38108	
1196	0	28180	32032	38124	
1197	0	28196	32028	38124	
1198	0	28204	32057	38116	
1199	0	28224	32032	38112	
1200	0	28228	32034	38100	
1201	0	28240	32016	38084	
1202	0	28256	32024	38112	
1203	0	28272	32036	38108	
1204	0	28284	32013	38100	
1205	0	28297	32008	38120	
1206	0	28304	32020	38080	
1207	0	28320	32052	38116	
1208	0	28326	32005	38112	
1209	0	28340	32028	38112	
1210	0	28360	32020	38116	
1211	0	28364	32017	38116	
1212	0	28384	32016	38112	
1213	0	28392	32026	38112	
1214	0	28401	32040	38104	
1215	0	28416	32028	38160	
1216	0	28428	32025	38104	
1217	0	28444	32024	38116	
1218	0	28448	32032	38076	
1219	0	28464	32016	38092	
1220	0	28466	32040	38116	
1221	0	28488	32028	38092	
1222	0	28496	32020	38120	
1223	0	28512	32036	38096	
1224	0	28524	32008	38124	
1225	0	28537	32036	38104	
1226	0	28548	32020	38108	
1227	0	28552	32016	38120	
1228	0	28568	32016	38096	
1229	0	28584	32020	38100	
1230	0	28589	32057	38112	
1231	0	28602	32017	38100	
1232	0	28608	32048	38104	
1233	0	28628	32028	38108	
1234	0	28636	32037	38100	
1235	0	28648	32032	38092	
1236	0	28664	32020	38112	
1237	0	28676	32062	38096	
1238	0	28688	32040	38096	
1239	0	28696	32048	38112	
1240	0	28708	32032	38112	
1241	0	28724	32020	38100	
1242	0	28736	32033	38096	
1243	0	28746	32030	38096	
1244	0	28765	32036	38101	
1245	0	28788	32036	38096	
1246	0	28792	32020	38096	
1247	0	28796	32012	38096	
1248	0	28812	32052	38128	
1249	0	28824	32016	38088	
1250	0	28836	32028	38104	
1251	0	28852	32044	38104	
1252	0	28857	32032	38124	
1253	0	28884	32020	38124	
1254	0	28889	32028	38100	
1255	0	28904	32028	38116	
1256	0	28914	32048	38084	
1257	0	28921	32036	38085	
1258	0	28944	32033	38104	
1259	0	28960	32029	38120	
1260	0	28972	32032	38085	
1261	0	28984	32008	38140	
1262	0	29000	32068	38096	
1263	0	29016	32032	38104	
1264	0	29028	32032	38113	
1265	0	29050	32000	38104	
1266	0	29062	32028	38116	
1267	0	29076	32032	38100	
1268	0	29096	32032	38116	
1269	0	29112	32044	38080	
1270	0	29128	32044	38104	
1271	0	29144	32044	38104	
1272	0	29157	32040	38081	
1273	0	29176	32012	38116	
1274	0	29192	32036	38088	
1275	0	29202	32034	38116	
1276	0	29221	32028	38092	
1277	0	29244	32036	38108	
1278	0	29256	32036	38120	
1279	0	29280	32028	38108	
1280	0	29292	32032	38120	
1281	0	29308	32032	38128	
1282	0	29320	32036	38112	
1283	0	29340	32028	38100	
1284	0	29356	32048	38104	
1285	0	29376	32044	38116	
1286	0	29385	32044	38100	
1287	0	29408	32057	38092	
1288	0	29428	32056	38116	
1289	0	29440	32049	38140	
1290	0	29456	32040	38108	
1291	0	29472	32020	38128	
1292	0	29492	32012	38124	
1293	0	29508	32024	38096	
1294	0	29524	32033	38081	
1295	0	29541	32052	38100	
1296	0	29553	32028	38116	
1297	0	29580	32036	38140	
1298	0	29589	32045	38124	
1299	0	29612	32044	38092	
1300	0	29624	32044	38136	
1301	0	29652	32036	38096	
1302	0	29668	32024	38090	
1303	0	29672	32021	38090	
1304	0	29696	32048	38120	
1305	0	29712	32048	38120	
1306	0	29720	32050	38116	
1307	0	29732	32044	38116	
1308	0	29752	32056	38116	
1309	0	29764	32070	38080	
1310	0	29776	32048	38108	
1311	0	29796	32040	38076	
1312	0	29808	32028	38096	
1313	0	29824	32040	38160	
1314	0	29840	32056	38137	
1315	0	29852	32028	38112	
1316	0	29866	32028	38116	
1317	0	29880	32048	38109	
1318	0	29896	32052	38132	
1319	0	29908	32040	38116	
1320	0	29920	32032	38104	
1321	0	29933	32036	38104	
1322	0	29944	32056	38112	
1323	0	29956	32048	38121	
1324	0	29976	32040	38112	
1325	0	29988	32068	38096	
1326	0	30004	32046	38136	
1327	0	30016	32060	38136	
1328	0	30024	32033	38128	
1329	0	30040	32064	38088	
1330	0	30052	32036	38116	
1331	0	30062	32040	38108	
1332	0	30077	32054	38076	
1333	0	30084	32052	38076	
1334	0	30096	32040	38116	
1335	0	30116	32041	38120	
1336	0	30116	32036	38128	
1337	0	30136	32032	38112	
1338	0	30146	32060	38144	
1339	0	30156	32032	38088	
1340	0	30164	32034	38120	
1341	0	30181	32056	38117	
1342	0	30200	32060	38112	
1343	0	30204	32044	38108	
1344	0	30220	32064	38088	
1345	0	30232	32041	38100	
1346	0	30239	32068	38116	
1347	0	30248	32040	38128	
1348	0	30265	32033	38128	
1349	0	30272	32060	38084	
1350	0	30284	32052	38100	
1351	0	30300	32040	38124	
1352	0	30308	32041	38128	
1353	0	30313	32040	38116	
1354	0	30328	32044	38096	
1355	0	30344	32048	38088	
1356	0	30344	32036	38089	
1357	0	30361	32040	38120	
1358	0	30368	32040	38116	
1359	0	30372	32040	38104	
1360	0	30384	32052	38104	
1361	0	30396	32052	38124	
1362	0	30405	32049	38100	
1363	0	30409	32060	38088	
1364	0	30424	32052	38100	
1365	0	30437	32056	38112	
1366	0	30444	32028	38100	
1367	0	30458	32056	38133	
1368	0	30464	32056	38144	
1369	0	30476	32060	38088	
1370	0	30484	32048	38080	
1371	0	30488	32048	38140	
1372	0	30500	32072	38096	
1373	0	30508	32064	38096	
1374	0	30520	32041	38112	
1375	0	30528	32048	38097	
1376	0	30536	32080	38129	
1377	0	30544	32049	38108	
1378	0	30552	32056	38112	
1379	0	30565	32065	38128	
1380	0	30572	32060	38096	
1381	0	30588	32064	38120	
1382	0	30592	32060	38132	
1383	0	30600	32033	38108	
1384	0	30604	32052	38129	
1385	0	30621	32040	38124	
1386	0	30628	32048	38080	
1387	0	30636	32045	38104	
1388	0	30644	32044	38136	
1389	0	30656	32036	38152	
1390	0	30656	32032	38160	
1391	0	30668	32024	38108	
1392	0	30680	32044	38080	
1393	0	30688	32044	38112	
1394	0	30696	32088	38132	
1395	0	30706	32056	38124	
1396	0	30714	32004	38093	
1397	0	30720	32036	38084	
1398	0	30732	32033	38112	
1399	0	30744	32053	38136	
1400	0	30756	32044	38108	
1401	0	30760	32008	38120	
1402	0	30776	32040	38144	
1403	0	30776	32026	38124	
1404	0	30792	32044	38108	
1405	0	30800	32022	38168	
1406	0	30804	32025	38120	
1407	0	30817	32040	38112	
1408	0	30828	32056	38096	
1409	0	30840	32017	38104	
1410	0	30848	32048	38072	
1411	0	30852	32029	38092	
1412	0	30856	32048	38096	
1413	0	30872	32036	38112	
1414	0	30880	32025	38136	
1415	0	30888	32024	38128	
1416	0	30904	32036	38112	
1417	0	30909	32052	38128	
1418	0	30920	32040	38116	
1419	0	30932	32048	38112	
1420	0	30936	32037	38112	
1421	0	30944	32032	38108	
1422	0	30952	32016	38124	
1423	0	30964	32016	38100	
1424	0	30965	32036	38144	
1425	0	30976	32024	38112	
1426	0	30992	32036	38120	
1427	0	30992	32032	38108	
1428	0	30998	32056	38128	
1429	0	31008	32040	38108	
1430	0	31016	32033	38112	
1431	0	31028	32032	38100	
1432	0	31036	32040	38084	
1433	0	31044	32024	38116	
1434	0	31056	32052	38108	
1435	0	31056	32048	38104	
1436	0	31068	32032	38136	
1437	0	31076	32020	38116	
1438	0	31088	32056	38124	
1439	0	31092	32024	38092	
1440	0	31100	32052	38125	
1441	0	31104	32028	38128	
1442	0	31116	32018	38128	
1443	0	31124	32012	38148	
1444	0	31129	32024	38132	
1445	0	31145	32029	38124	
1446	0	31149	32032	38136	
1447	0	31152	32020	38144	
1448	0	31160	32032	38136	
1449	0	31168	32044	38120	
1450	0	31168	32020	38152	
1451	0	31184	32037	38112	
1452	0	31193	32052	38109	
1453	0	31200	32048	38124	
1454	0	31212	32041	38100	
1455	0	31220	32041	38124	
1456	0	31224	32060	38113	
1457	0	31228	32050	38128	
1458	0	31237	32044	38118	
1459	0	31244	32029	38116	
1460	0	31256	32028	38096	
1461	0	31268	32048	38104	
1462	0	31264	32040	38104	
1463	0	31284	32004	38124	
1464	0	31288	32036	38116	
1465	0	31296	32036	38128	
1466	0	31308	32024	38112	
1467	0	31312	32036	38140	
1468	0	31321	32017	38096	
1469	0	31332	32020	38112	
1470	0	31336	32025	38128	
1471	0	31340	32040	38112	
1472	0	31352	32020	38104	
1473	0	31364	32009	38148	
1474	0	31372	32008	38148	
1475	0	31380	32012	38120	
1476	0	31384	32002	38100	
1477	0	31396	32032	38116	
1478	0	31404	32016	38096	
1479	0	31409	32018	38120	
1480	0	31420	32024	38092	
1481	0	31424	32032	38116	
1482	0	31432	32032	38100	
1483	0	31444	32032	38096	
1484	0	31448	32024	38112	
1485	0	31460	32037	38120	
1486	0	31464	32028	38153	
1487	0	31464	32056	38113	
1488	0	31484	32048	38128	
1489	0	31496	32040	38084	
1490	0	31500	32029	38120	
1491	0	31514	32024	38116	
1492	0	31524	32016	38137	
1493	0	31528	32040	38136	
1494	0	31544	32024	38120	
1495	0	31544	32012	38116	
1496	0	31556	32028	38133	
1497	0	31564	32018	38088	
1498	0	31584	32016	38096	
1499	0	31585	32024	38076	
1500	0	31588	32032	38104	
1501	0	31604	32032	38097	
1502	0	31602	32028	38136	
1503	0	31628	32032	38116	
1504	0	31629	32037	38124	
1505	0	31644	32032	38108	
1506	0	31656	32028	38104	
1507	0	31664	32024	38140	
1508	0	31676	32032	38132	
1509	0	31692	32044	38125	
1510	0	31704	32016	38128	
1511	0	31712	32040	38108	
1512	0	31732	32012	38096	
1513	0	31736	32025	38112	
1514	0	31748	32013	38136	
1515	0	31765	32034	38096	
1516	0	31780	32016	38112	
1517	0	31788	32000	38068	
1518	0	31804	32014	38068	
1519	0	31820	32024	38108	
1520	0	31832	32084	38108	
1521	0	31852	32040	38168	
1522	0	31852	32000	38116	
1523	0	31872	32000	38056	
1524	0	31884	32033	38125	
1525	0	31904	32016	38136	
1526	0	31912	32017	38128	
1527	0	31928	32005	38086	
1528	0	31948	32004	38088	
1529	0	31956	32001	38101	
1530	0	31980	32016	38100	
1531	0	31996	31988	38116	
1532	0	32005	32004	38092	
1533	0	32024	31980	38112	
1534	0	32044	32000	38108	
1535	0	32060	32005	38108	
1536	0	32065	31980	38084	
1537	0	32092	32008	38116	
1538	0	32104	31996	38132	
1539	0	32120	31996	38092	
1540	0	32140	32008	38092	
1541	0	32152	32000	38088	
1542	0	32172	32000	38108	
1543	0	32192	32004	38100	
1544	0	32208	32008	38104	
1545	0	32224	32020	38092	
1546	0	32244	31996	38100	
1547	0	32264	31984	38129	
1548	0	32276	31996	38104	
1549	0	32292	31984	38112	
1550	0	32316	31948	38120	
1551	0	32332	31992	38104	
1552	0	32357	31952	38148	
1553	0	32369	31972	38116	
1554	0	32396	31965	38068	
1555	0	32408	31972	38120	
1556	0	32432	31964	38124	
1557	0	32448	31964	38128	
1558	0	32464	31952	38102	
1559	0	32482	31954	38124	
1560	0	32506	31960	38116	
1561	0	32506	31978	38116	
1562	0	32541	31964	38116	
1563	0	32564	31976	38088	
1564	0	32584	31964	38120	
1565	0	32605	31984	38124	
1566	0	32614	31964	38140	
1567	0	32640	31940	38112	
1568	0	32658	31961	38096	
1569	0	32680	31944	38144	
1570	0	32704	31968	38116	
1571	0	32724	31952	38101	
1572	0	32740	31956	38112	
1573	0	32760	31952	38108	
1574	0	32780	31924	38108	
1575	0	32808	31924	38108	
1576	0	32820	31918	38136	
1577	0	32848	31924	38104	
1578	0	32856	31944	38100	
1579	0	32888	31920	38112	
1580	0	32904	31944	38100	
1581	0	32924	31936	38124	
1582	0	32940	31924	38120	
1583	0	32968	31944	38064	
1584	0	32992	31928	38100	
1585	0	33012	31913	38100	
1586	0	33024	31904	38092	
1587	0	33056	31932	38092	
1588	0	33069	31913	38094	
1589	0	33100	31932	38093	
1590	0	33116	31916	38104	
1591	0	33128	31944	38108	
1592	0	33152	31924	38124	
1593	0	33180	31932	38116	
1594	0	33196	31953	38120	
1595	0	33216	31972	38124	
1596	0	33240	31972	38132	
1597	0	33260	31985	38108	
1598	0	33284	31972	38108	
1599	0	33305	31956	38101	
1600	0	33320	31962	38076	
1601	0	33344	31948	38144	
1602	0	33364	31960	38084	
1603	0	33384	31956	38096	
1604	0	33404	31956	38120	
1605	0	33420	31960	38104	
1606	0	33450	31944	38096	
1607	0	33466	31938	38116	
1608	0	33484	31936	38084	
1609	0	33504	31948	38100	
1610	0	33528	31954	38128	
1611	0	33552	31942	38120	
1612	0	33564	31956	38140	
1613	0	33584	31956	38128	
1614	0	33604	31924	38132	
1615	0	33620	31976	38112	
1616	0	33645	31954	38140	
1617	0	33668	31952	38132	
1618	0	33680	31965	38128	
1619	0	33700	31924	38124	
1620	0	33720	31918	38096	
1621	0	33736	31960	38120	
1622	0	33756	31940	38116	
1623	0	33780	31944	38120	
1624	0	33792	31940	38108	
1625	0	33812	31912	38112	
1626	0	33828	31916	38116	
1627	0	33848	31888	38113	
1628	0	33864	31920	38120	
1629	0	33876	31921	38116	
1630	0	33892	31901	38112	
1631	0	33920	31893	38100	
1632	0	33936	31876	38128	
1633	0	33948	31905	38100	
1634	0	33964	31904	38101	
1635	0	33980	31904	38129	
1636	0	33992	31904	38132	
1637	0	34016	31904	38104	
1638	0	34028	31900	38116	
1639	0	34045	31896	38116	
1640	0	34060	31904	38144	
1641	0	34073	31916	38132	
1642	0	34088	31892	38100	
1643	0	34104	31912	38096	
1644	0	34120	31912	38069	
1645	0	34144	31912	38120	
1646	0	34148	31924	38116	
1647	0	34156	31896	38100	
1648	0	34180	31897	38104	
1649	0	34192	31920	38096	
1650	0	34204	31912	38117	
1651	0	34213	31904	38096	
1652	0	34229	31905	38120	
1653	0	34244	31910	38104	
1654	0	34248	31904	38116	
1655	0	34264	31888	38096	
1656	0	34284	31896	38104	
1657	0	34296	31896	38124	
1658	0	34308	31892	38124	
1659	0	34313	31876	38100	
1660	0	34332	31868	38068	
1661	0	34341	31864	38124	
1662	0	34357	31861	38108	
1663	0	34364	31876	38100	
1664	0	34380	31876	38096	
1665	0	34392	31884	38108	
1666	0	34404	31876	38076	
1667	0	34408	31856	38084	
1668	0	34432	31860	38104	
1669	0	34432	31872	38092	
1670	0	34444	31876	38128	
1671	0	34460	31856	38128	
1672	0	34480	31896	38132	
1673	0	34484	31872	38088	
1674	0	34496	31864	38118	
1675	0	34512	31873	38120	
1676	0	34520	31868	38104	
1677	0	34528	31872	38092	
1678	0	34540	31868	38064	
1679	0	34552	31856	38096	
1680	0	34558	31856	38104	
1681	0	34576	31852	38101	
1682	0	34584	31856	38120	
1683	0	34592	31860	38104	
1684	0	34604	31856	38120	
1685	0	34616	31836	38141	
1686	0	34624	31853	38144	
1687	0	34632	31873	38088	
1688	0	34648	31876	38092	
1689	0	34649	31844	38128	
1690	0	34656	31845	38080	
1691	0	34672	31852	38128	
1692	0	34684	31856	38136	
1693	0	34696	31868	38113	
1694	0	34704	31856	38112	
1695	0	34708	31852	38104	
1696	0	34716	31865	38080	
1697	0	34728	31866	38097	
1698	0	34740	31828	38112	
1699	0	34752	31864	38156	
1700	0	34753	31836	38129	
1701	0	34772	31854	38120	
1702	0	34776	31840	38112	
1703	0	34788	31856	38112	
1704	0	34800	31860	38084	
1705	0	34808	31852	38108	
1706	0	34820	31809	38084	
1707	0	34828	31808	38092	
1708	0	34836	31816	38117	
1709	0	34841	31786	38092	
1710	0	34864	31836	38076	
1711	0	34872	31820	38088	
1712	0	34876	31836	38104	
1713	0	34888	31804	38116	
1714	0	34900	31826	38080	
1715	0	34916	31808	38128	
1716	0	34920	31808	38117	
1717	0	34928	31732	38076	
1718	0	34937	31832	38072	
1719	0	34948	31812	38160	
1720	0	34960	31840	38124	
1721	0	34972	31792	38105	
1722	0	34972	31800	38116	
1723	0	34992	31834	38097	
1724	0	35000	31810	38089	
1725	0	35008	31832	38104	
1726	0	35016	31820	38112	
1727	0	35024	31816	38104	
1728	0	35041	31804	38088	
1729	0	35052	31797	38080	
1730	0	35064	31804	38096	
1731	0	35068	31818	38112	
1732	0	35076	31820	38116	
1733	0	35088	31818	38156	
1734	0	35104	31817	38128	
1735	0	35112	31834	38128	
1736	0	35124	31844	38116	
1737	0	35136	31852	38124	
1738	0	35144	31841	38112	
1739	0	35148	31844	38108	
1740	0	35168	31816	38104	
1741	0	35180	31812	38129	
1742	0	35180	31816	38136	
1743	0	35204	31820	38116	
1744	0	35200	31828	38080	
1745	0	35228	31812	38112	
1746	0	35232	31830	38100	
1747	0	35248	31816	38124	
1748	0	35256	31816	38140	
1749	0	35264	31832	38101	
1750	0	35272	31793	38116	
1751	0	35296	31820	38117	
1752	0	35304	31820	38120	
1753	0	35313	31800	38148	
1754	0	35332	31768	38140	
1755	0	35333	31800	38112	
1756	0	35352	31757	38136	
1757	0	35360	31784	38132	
1758	0	35384	31780	38116	
1759	0	35416	31764	38120	
1760	0	35410	31776	38136	
1761	0	35420	31756	38144	
1762	0	35432	31756	38140	
1763	0	35452	31764	38132	
1764	0	35460	31768	38120	
1765	0	35476	31756	38124	
1766	0	35492	31781	38132	
1767	0	35504	31756	38124	
1768	0	35522	31780	38120	
1769	0	35528	31776	38124	
1770	0	35552	31805	38126	
1771	0	35568	31765	38116	
1772	0	35584	31784	38140	
1773	0	35604	31744	38144	
1774	0	35620	31728	38124	
1775	0	35632	31748	38136	
1776	0	35648	31781	38132	
1777	0	35672	31764	38160	
1778	0	35684	31757	38148	
1779	0	35708	31756	38116	
1780	0	35720	31781	38096	
1781	0	35740	31776	38080	
1782	0	35752	31784	38100	
1783	0	35776	31772	38124	
1784	0	35788	31752	38108	
1785	0	35812	31748	38116	
1786	0	35828	31756	38104	
1787	0	35844	31724	38080	
1788	0	35864	31730	38104	
1789	0	35876	31716	38108	
1790	0	35908	31720	38084	
1791	0	35912	31724	38092	
1792	0	35936	31716	38112	
1793	0	35956	31720	38112	
1794	0	35972	31708	38112	
1795	0	35992	31736	38112	
1796	0	36012	31728	38100	
1797	0	36024	31712	38104	
1798	0	36044	31716	38104	
1799	0	36060	31712	38128	
1800	0	36080	31712	38108	
1801	0	36102	31704	38096	
1802	0	36120	31700	38124	
1803	0	36140	31704	38136	
1804	0	36156	31716	38116	
1805	0	36172	31700	38092	
1806	0	36192	31710	38112	
1807	0	36208	31712	38112	
1808	0	36224	31717	38132	
1809	0	36248	31724	38116	
1810	0	36256	31716	38104	
1811	0	36280	31736	38112	
1812	0	36288	31708	38128	
1813	0	36312	31716	38108	
1814	0	36325	31717	38104	
1815	0	36348	31708	38104	
1816	0	36368	31680	38124	
1817	0	36380	31708	38100	
1818	0	36396	31688	38100	
1819	0	36408	31600	38024	
1820	0	36428	31616	38028	
1821	0	36444	31768	38196	
1822	0	36456	31704	38148	
1823	0	36472	31692	38100	
1824	0	36492	31648	38124	
1825	0	36500	31674	38102	
1826	0	36516	31688	38112	
1827	0	36532	31688	38133	
1828	0	36548	31688	38164	
1829	0	36564	31684	38126	
1830	0	36576	31680	38140	
1831	0	36580	31696	38112	
1832	0	36600	31700	38116	
1833	0	36612	31705	38064	
1834	0	36628	31701	38140	
1835	0	36636	31700	38104	
1836	0	36652	31680	38140	
1837	0	36653	31672	38112	
1838	0	36668	31672	38120	
1839	0	36696	31676	38124	
1840	0	36697	31669	38132	
1841	0	36708	31684	38108	
1842	0	36720	31697	38104	
1843	0	36732	31672	38092	
1844	0	36736	31676	38100	
1845	0	36748	31676	38112	
1846	0	36764	31680	38109	
1847	0	36764	31672	38112	
1848	0	36781	31676	38112	
1849	0	36784	31676	38128	
1850	0	36800	31668	38120	
1851	0	36808	31692	38132	
1852	0	36820	31688	38105	
1853	0	36824	31676	38124	
1854	0	36833	31656	38120	
1855	0	36844	31680	38132	
1856	0	36856	31672	38136	
1857	0	36856	31704	38097	
1858	0	36868	31665	38112	
1859	0	36876	31658	38088	
1860	0	36880	31656	38096	
1861	0	36888	31672	38080	
1862	0	36896	31652	38112	
1863	0	36896	31660	38112	
1864	0	36904	31644	38116	
1865	0	36912	31668	38112	
1866	0	36921	31664	38128	
1867	0	36928	31652	38108	
1868	0	36932	31656	38140	
1869	0	36936	31660	38124	
1870	0	36948	31652	38120	
1871	0	36944	31648	38116	
1872	0	36956	31656	38109	
1873	0	36960	31664	38120	
1874	0	36968	31669	38149	
1875	0	36972	31676	38116	
1876	0	36968	31640	38108	
1877	0	36976	31649	38108	
1878	0	36984	31652	38108	
1879	0	36992	31668	38132	
1880	0	36992	31657	38104	
1881	0	37001	31652	38112	
1882	0	37000	31656	38148	
1883	0	37008	31668	38096	
1884	0	37012	31672	38112	
1885	0	37012	31660	38132	
1886	0	37016	31637	38116	
1887	0	37020	31648	38120	
1888	0	37020	31644	38121	
1889	0	37021	31648	38120	
1890	0	37024	31660	38120	
1891	0	37028	31660	38104	
1892	0	37028	31680	38092	
1893	0	37032	31660	38084	
1894	0	37032	31658	38128	
1895	0	37036	31676	38108	
1896	0	37040	31660	38112	
1897	0	37040	31654	38112	
1898	0	37052	31648	38100	
1899	0	37048	31652	38080	
1900	0	37048	31656	38088	
1901	0	37056	31680	38088	
1902	0	37056	31653	38104	
1903	0	37052	31660	38116	
1904	0	37056	31660	38136	
1905	0	37060	31656	38108	
1906	0	37056	31658	38124	
1907	0	37056	31672	38136	
1908	0	37056	31672	38136	
1909	0	37060	31664	38096	
1910	0	37064	31660	38120	
1911	0	37060	31652	38108	
1912	0	37068	31652	38116	
1913	0	37060	31636	38125	
1914	0	37066	31649	38109	
1915	0	37072	31637	38128	
1916	0	37064	31652	38092	
1917	0	37072	31648	38112	
1918	0	37064	31656	38092	
1919	0	37064	31656	38098	
1920	0	37072	31664	38097	
1921	0	37068	31652	38104	
1922	0	37064	31664	38100	
1923	0	37056	31633	38140	
1924	0	37064	31676	38144	
1925	0	37068	31666	38128	
1926	0	37064	31652	38112	
1927	0	37064	31649	38116	
1928	0	37052	31644	38100	
1929	0	37064	31648	38124	
1930	0	37048	31672	38088	
1931	0	37056	31622	38140	
1932	0	37060	31652	38108	
1933	0	37048	31664	38096	
1934	0	37044	31636	38108	
1935	0	37048	31656	38116	
1936	0	37041	31640	38128	
1937	0	37040	31660	38148	
1938	0	37032	31648	38112	
1939	0	37029	31646	38136	
1940	0	37032	31676	38120	
1941	0	37020	31624	38092	
1942	0	37016	31628	38100	
1943	0	37008	31656	38116	
1944	0	37008	31652	38116	
1945	0	37004	31648	38132	
1946	0	36996	31648	38112	
1947	0	36992	31653	38148	
1948	0	36988	31668	38128	
1949	0	36980	31673	38112	
1950	0	36980	31644	38096	
1951	0	36960	31640	38080	
1952	0	36957	31628	38120	
1953	0	36952	31636	38124	
1954	0	36944	31636	38104	
1955	0	36936	31644	38132	
1956	0	36940	31644	38104	
1957	0	36921	31632	38116	
1958	0	36920	31664	38096	
1959	0	36912	31656	38092	
1960	0	36896	31650	38112	
1961	0	36896	31640	38088	
1962	0	36872	31632	38112	
1963	0	36876	31644	38144	
1964	0	36852	31661	38128	
1965	0	36852	31665	38096	
1966	0	36836	31664	38120	
1967	0	36832	31658	38108	
1968	0	36825	31672	38112	
1969	0	36812	31681	38076	
1970	0	36798	31660	38112	
1971	0	36784	31688	38108	
1972	0	36776	31668	38112	
1973	0	36765	31668	38132	
1974	0	36756	31652	38108	
1975	0	36740	31664	38132	
1976	0	36728	31668	38112	
1977	0	36704	31681	38096	
1978	0	36701	31680	38088	
1979	0	36684	31660	38108	
1980	0	36676	31677	38100	
1981	0	36668	31680	38124	
1982	0	36648	31672	38125	
1983	0	36636	31684	38136	
1984	0	36620	31672	38109	
1985	0	36608	31688	38116	
1986	0	36596	31680	38100	
1987	0	36572	31660	38060	
1988	0	36568	31656	38132	
1989	0	36552	31672	38136	
1990	0	36532	31660	38108	
1991	0	36516	31680	38104	
1992	0	36508	31684	38097	
1993	0	36480	31680	38077	
1994	0	36472	31692	38088	
1995	0	36456	31680	38096	
1996	0	36432	31668	38148	
1997	0	36416	31680	38116	
1998	0	36400	31684	38100	
1999	0	36388	31681	38096	
2000	0	36368	31684	38096	
2001	0	36356	31673	38105	
2002	0	36332	31704	38132	
2003	0	36320	31716	38092	
2004	0	36304	31704	38108	
2005	0	36288	31736	38108	
2006	0	36276	31716	38112	
2007	0	36253	31688	38112	
2008	0	36236	31720	38116	
2009	0	36216	31708	38092	
2010	0	36196	31724	38108	
2011	0	36180	31720	38096	
2012	0	36168	31704	38100	
2013	0	36148	31732	38120	
2014	0	36132	31732	38116	
2015	0	36112	31704	38088	
2016	0	36089	31710	38112	
2017	0	36077	31708	38100	
2018	0	36056	31728	38093	
2019	0	36036	31716	38124	
2020	0	36020	31712	38124	
2021	0	36004	31700	38132	
2022	0	35984	31716	38136	
2023	0	35960	31692	38112	
2024	0	35948	31712	38088	
2025	0	35928	31718	38052	
2026	0	35906	31716	38088	
2027	0	35892	31704	38116	
2028	0	35868	31732	38080	
2029	0	35852	31732	38124	
2030	0	35832	31753	38088	
2031	0	35812	31752	38092	
2032	0	35788	31784	38076	
2033	0	35776	31780	38084	
2034	0	35756	31780	38120	
2035	0	35733	31774	38096	
2036	0	35716	31762	38136	
2037	0	35692	31732	38096	
2038	0	35669	31752	38116	
2039	0	35656	31744	38060	
2040	0	35628	31784	38092	
2041	0	35612	31780	38148	
2042	0	35588	31760	38132	
2043	0	35564	31748	38128	
2044	0	35544	31753	38116	
2045	0	35530	31772	38125	
2046	0	35512	31772	38140	
2047	0	35484	31784	38116	
2048	0	35464	31760	38124	
2049	0	35436	31764	38112	
2050	0	35420	31748	38116	
2051	0	35400	31776	38112	
2052	0	35368	31796	38113	
2053	0	35345	31784	38116	
2054	0	35313	31812	38132	
2055	0	35300	31812	38137	
2056	0	35272	31828	38132	
2057	0	35256	31828	38116	
2058	0	35240	31788	38144	
2059	0	35212	31812	38116	
2060	0	35180	31808	38132	
2061	0	35160	31820	38112	
2062	0	35128	31824	38108	
2063	0	35108	31792	38152	
2064	0	35088	31812	38104	
2065	0	35052	31816	38128	
2066	0	35032	31820	38116	
2067	0	35005	31832	38128	
2068	0	34976	31781	38124	
2069	0	34956	31792	38132	
2070	0	34928	31816	38148	
2071	0	34900	31832	38116	
2072	0	34872	31826	38132	
2073	0	34852	31812	38092	
2074	0	34820	31828	38132	
2075	0	34792	31864	38124	
2076	0	34773	31872	38144	
2077	0	34752	31856	38120	
2078	0	34720	31876	38116	
2079	0	34696	31873	38124	
2080	0	34668	31877	38116	
2081	0	34644	31872	38104	
2082	0	34613	31868	38124	
2083	0	34584	31869	38112	
2084	0	34564	31868	38100	
2085	0	34532	31876	38108	
2086	0	34500	31868	38101	
2087	0	34481	31881	38124	
2088	0	34453	31860	38124	
2089	0	34432	31862	38134	
2090	0	34396	31872	38148	
2091	0	34376	31854	38144	
2092	0	34344	31884	38112	
2093	0	34318	31892	38152	
2094	0	34284	31912	38116	
2095	0	34264	31924	38132	
2096	0	34232	31936	38108	
2097	0	34204	31916	38144	
2098	0	34180	31928	38120	
2099	0	34148	31904	38120	
2100	0	34124	31906	38116	
2101	0	34104	31904	38136	
2102	0	34072	31932	38089	
2103	0	34040	31924	38104	
2104	0	34008	31916	38120	
2105	0	33984	31900	38132	
2106	0	33957	31912	38124	
2107	0	33932	31916	38112	
2108	0	33904	31912	38108	
2109	0	33876	31912	38136	
2110	0	33848	31920	38096	
2111	0	33820	31908	38144	
2112	0	33796	31908	38136	
2113	0	33764	31969	38108	
2114	0	33740	31948	38112	
2115	0	33712	31968	38100	
2116	0	33680	31969	38094	
2117	0	33652	31936	38116	
2118	0	33625	31937	38128	
2119	0	33596	31960	38129	
2120	0	33569	31944	38124	
2121	0	33540	31936	38124	
2122	0	33512	31952	38136	
2123	0	33484	31956	38124	
2124	0	33456	31944	38136	
2125	0	33428	31968	38104	
2126	0	33400	31941	38112	
2127	0	33372	31992	38101	
2128	0	33336	31964	38144	
2129	0	33312	31936	38124	
2130	0	33276	31976	38116	
2131	0	33252	31976	38124	
2132	0	33216	31981	38092	
2133	0	33192	32012	38100	
2134	0	33164	31936	38108	
2135	0	33129	31944	38128	
2136	0	33104	31932	38124	
2137	0	33072	31933	38120	
2138	0	33040	31928	38113	
2139	0	33008	31956	38116	
2140	0	32968	31936	38124	
2141	0	32948	31956	38108	
2142	0	32912	31948	38125	
2143	0	32880	31940	38140	
2144	0	32844	31952	38108	
2145	0	32808	31938	38124	
2146	0	32780	31968	38120	
2147	0	32744	32000	38105	
2148	0	32716	31980	38134	
2149	0	32680	31988	38117	
2150	0	32644	31973	38096	
2151	0	32608	31980	38124	
2152	0	32576	31980	38120	
2153	0	32552	31984	38140	
2154	0	32509	31984	38125	
2155	0	32480	31988	38129	
2156	0	32445	32008	38108	
2157	0	32412	31968	38124	
2158	0	32380	31964	38108	
2159	0	32344	31980	38140	
2160	0	32308	31988	38136	
2161	0	32276	31985	38089	
2162	0	32236	32012	38112	
2163	0	32210	31996	38120	
2164	0	32176	31996	38104	
2165	0	32137	32005	38112	
2166	0	32112	31982	38120	
2167	0	32068	32012	38108	
2168	0	32037	31992	38112	
2169	0	32008	32004	38116	
2170	0	31968	32000	38084	
2171	0	31937	32016	38128	
2172	0	31904	32001	38112	
2173	0	31873	31988	38097	
2174	0	31840	32000	38132	
2175	0	31808	32004	38088	
2176	0	31776	32021	38112	
2177	0	31740	32036	38112	
2178	0	31728	32035	38113	
2179	0	31680	32017	38136	
2180	0	31644	32040	38108	
2181	0	31616	32020	38097	
2182	0	31584	32016	38112	
2183	0	31556	32004	38128	
2184	0	31522	32044	38108	
2185	0	31488	32044	38125	
2186	0	31456	32016	38137	
2187	0	31428	32037	38112	
2188	0	31400	32028	38113	
2189	0	31370	32016	38120	
2190	0	31345	32040	38112	
2191	0	31312	32016	38116	
2192	0	31280	32020	38116	
2193	0	31249	32036	38112	
2194	0	31224	32032	38120	
2195	0	31196	32048	38092	
2196	0	31168	32029	38130	
2197	0	31144	32033	38092	
2198	0	31112	32045	38104	
2199	0	31084	32040	38048	
2200	0	31068	32052	38093	
2201	0	31040	32040	38104	
2202	0	31008	32049	38120	
2203	0	30984	32048	38116	
2204	0	30956	32024	38116	
2205	0	30936	32024	38124	
2206	0	30904	32033	38124	
2207	0	30880	32033	38092	
2208	0	30852	32036	38096	
2209	0	30836	32012	38089	
2210	0	30808	32037	38116	
2211	0	30780	32044	38132	
2212	0	30756	32024	38137	
2213	0	30736	32032	38124	
2214	0	30708	32040	38132	
2215	0	30688	32052	38104	
2216	0	30656	32036	38152	
2217	0	30632	32020	38132	
2218	0	30616	32040	38116	
2219	0	30581	32040	38112	
2220	0	30560	32020	38120	
2221	0	30542	32016	38128	
2222	0	30520	32008	38104	
2223	0	30493	32023	38124	
2224	0	30480	32028	38125	
2225	0	30452	32020	38124	
2226	0	30429	32020	38112	
2227	0	30408	32020	38109	
2228	0	30392	32040	38104	
2229	0	30360	32032	38140	
2230	0	30340	32024	38136	
2231	0	30324	32028	38112	
2232	0	30305	32028	38136	
2233	0	30288	32030	38120	
2234	0	30264	32028	38132	
2235	0	30240	32032	38136	
2236	0	30220	32053	38108	
2237	0	30204	32050	38104	
2238	0	30180	32049	38076	
2239	0	30160	32048	38096	
2240	0	30140	32048	38108	
2241	0	30124	32013	38104	
2242	0	30108	32033	38116	
2243	0	30088	32048	38092	
2244	0	30068	32028	38104	
2245	0	30052	32044	38096	
2246	0	30036	32040	38112	
2247	0	30024	32033	38108	
2248	0	30000	32036	38112	
2249	0	29977	32030	38112	
2250	0	29965	32036	38116	
2251	0	29952	32036	38100	
2252	0	29932	32036	38112	
2253	0	29916	32033	38124	
2254	0	29896	32025	38116	
2255	0	29884	32042	38108	
2256	0	29868	32036	38124	
2257	0	29853	32028	38120	
2258	0	29840	32052	38152	
2259	0	29820	32032	38124	
2260	0	29812	32040	38104	
2261	0	29788	32028	38096	
2262	0	29776	32056	38088	
2263	0	29760	32040	38104	
2264	0	29760	32032	38116	
2265	0	29736	32032	38108	
2266	0	29728	32032	38140	
2267	0	29708	32033	38124	
2268	0	29692	32048	38116	
2269	0	29676	32060	38120	
2270	0	29672	32040	38136	
2271	0	29656	32032	38144	
2272	0	29648	32037	38104	
2273	0	29636	32025	38116	
2274	0	29624	32040	38104	
2275	0	29612	32028	38100	
2276	0	29596	32033	38132	
2277	0	29585	32028	38089	
2278	0	29576	32029	38120	
2279	0	29564	32032	38128	
2280	0	29552	32014	38108	
2281	0	29541	32040	38076	
2282	0	29536	32020	38102	
2283	0	29520	32020	38128	
2284	0	29508	32025	38096	
2285	0	29504	32008	38104	
2286	0	29488	32024	38116	
2287	0	29481	32028	38120	
2288	0	29472	32024	38120	
2289	0	29464	32005	38148	
2290	0	29449	32040	38108	
2291	0	29437	32048	38112	
2292	0	29440	32056	38120	
2293	0	29424	32052	38112	
2294	0	29420	32012	38128	
2295	0	29408	32048	38112	
2296	0	29400	32036	38100	
2297	0	29392	32028	38108	
2298	0	29392	32020	38100	
2299	0	29376	32049	38094	
2300	0	29368	32024	38133	
2301	0	29364	32048	38132	
2302	0	29360	32012	38112	
2303	0	29356	32048	38104	
2304	0	29340	32042	38104	
2305	0	29337	32036	38092	
2306	0	29333	32028	38148	
2307	0	29324	32028	38116	
2308	0	29322	32036	38112	
2309	0	29317	32024	38100	
2310	0	29308	32028	38100	
2311	0	29300	32036	38120	
2312	0	29297	32048	38113	
2313	0	29296	32032	38116	
2314	0	29288	32028	38116	
2315	0	29286	32021	38124	
2316	0	29284	32040	38128	
2317	0	29269	32021	38096	
2318	0	29276	32000	38121	
2319	0	29272	32016	38112	
2320	0	29268	32040	38116	
2321	0	29269	32056	38112	
2322	0	29260	32025	38116	
2323	0	29264	32028	38108	
2324	0	29261	32016	38128	
2325	0	29256	32036	38104	
2326	0	29252	32044	38096	
2327	0	29260	32020	38112	
2328	0	29252	32052	38100	
2329	0	29248	32036	38100	
2330	0	29256	32028	38112	
2331	0	29252	32032	38132	
2332	0	29253	32016	38124	
2333	0	29248	32040	38096	
2334	0	29248	32012	38128	
2335	0	29256	32008	38116	
2336	0	29253	32024	38084	
2337	0	29248	32020	38096	
2338	0	29244	32028	38096	
2339	0	29248	32028	38092	
2340	0	29248	32020	38108	
2341	0	29249	32036	38121	
2342	0	29248	32020	38112	
2343	0	29256	32008	38120	
2344	0	29252	32044	38081	
2345	0	29257	32032	38108	
2346	0	29268	32008	38136	
2347	0	29260	32034	38112	
2348	0	29264	31984	38128	
2349	0	29264	32018	38108	
2350	0	29268	32012	38124	
2351	0	29268	32040	38136	
2352	0	29264	32016	38153	
2353	0	29276	32016	38100	
2354	0	29276	32009	38108	
2355	0	29280	32016	38096	
2356	0	29280	32021	38080	
2357	0	29288	32040	38140	
2358	0	29292	32033	38112	
2359	0	29294	32008	38092	
2360	0	29296	32012	38096	
2361	0	29300	32024	38076	
2362	0	29304	32016	38108	
2363	0	29312	31993	38140	
2364	0	29309	32004	38092	
2365	0	29316	31997	38092	
2366	0	29316	32013	38112	
2367	0	29332	32000	38104	
2368	0	29328	32012	38116	
2369	0	29336	32037	38138	
2370	0	29340	31996	38124	
2371	0	29344	32000	38128	
2372	0	29345	32012	38088	
2373	0	29352	32012	38076	
2374	0	29360	32020	38090	
2375	0	29368	31996	38108	
2376	0	29369	31997	38128	
2377	0	29373	32012	38104	
2378	0	29384	32024	38088	
2379	0	29388	32028	38108	
2380	0	29400	32000	38116	
2381	0	29404	32024	38112	
2382	0	29412	32025	38100	
2383	0	29420	31996	38140	
2384	0	29424	32000	38120	
2385	0	29436	32012	38136	
2386	0	29438	32017	38100	
2387	0	29448	32028	38084	
2388	0	29456	32004	38096	
2389	0	29464	32016	38072	
2390	0	29472	32024	38084	
2391	0	29476	32020	38085	
2392	0	29484	32024	38128	
2393	0	29488	32034	38100	
2394	0	29496	32024	38101	
2395	0	29512	32012	38120	
2396	0	29520	32021	38100	
2397	0	29529	32013	38101	
2398	0	29536	31996	38104	
2399	0	29540	32012	38104	
2400	0	29556	32020	38090	
2401	0	29568	32024	38092	
2402	0	29568	32016	38108	
2403	0	29580	32000	38128	
2404	0	29588	32017	38100	
2405	0	29600	32004	38120	
2406	0	29609	32029	38096	
2407	0	29616	32009	38112	
2408	0	29620	32026	38096	
2409	0	29640	31990	38118	
2410	0	29652	32012	38116	
2411	0	29664	32028	38100	
2412	0	29668	32012	38096	
2413	0	29672	32016	38112	
2414	0	29693	32016	38128	
2415	0	29705	32021	38084	
2416	0	29716	32012	38104	
2417	0	29724	32016	38120	
2418	0	29740	32016	38112	
2419	0	29748	32020	38092	
2420	0	29761	32024	38136	
2421	0	29777	32013	38116	
2422	0	29784	32024	38136	
2423	0	29802	32032	38124	
2424	0	29814	32020	38124	
2425	0	29824	32016	38124	
2426	0	29840	32005	38140	
2427	0	29844	32015	38120	
2428	0	29864	32008	38112	
2429	0	29876	32012	38076	
2430	0	29888	32012	38144	
2431	0	29904	32036	38084	
2432	0	29916	32033	38116	
2433	0	29936	32028	38124	
2434	0	29948	32024	38112	
2435	0	29964	32020	38132	
2436	0	29972	32016	38132	
2437	0	29984	32024	38105	
2438	0	30000	32020	38116	
2439	0	30012	32032	38112	
2440	0	30032	32016	38120	
2441	0	30040	32004	38117	
2442	0	30053	32010	38112	
2443	0	30064	32017	38117	
2444	0	30084	32040	38096	
2445	0	30088	32028	38100	
2446	0	30108	32008	38104	
2447	0	30116	32028	38128	
2448	0	30142	32013	38112	
2449	0	30144	32008	38116	
2450	0	30156	32024	38092	
2451	0	30168	32020	38132	
2452	0	30180	32028	38104	
2453	0	30197	32032	38119	
2454	0	30212	32020	38132	
2455	0	30224	32012	38108	
2456	0	30232	32004	38104	
2457	0	30244	32024	38116	
2458	0	30261	32064	38132	
2459	0	30280	32040	38136	
2460	0	30284	32033	38124	
2461	0	30293	32004	38124	
2462	0	30313	31996	38116	
2463	0	30318	32032	38093	
2464	0	30332	32008	38136	
2465	0	30340	32012	38133	
2466	0	30353	32008	38112	
2467	0	30365	31996	38113	
2468	0	30376	32032	38101	
2469	0	30388	32016	38144	
2470	0	30396	32024	38108	
2471	0	30412	32024	38124	
2472	0	30420	32029	38124	
2473	0	30428	32028	38108	
2474	0	30436	32048	38092	
2475	0	30445	32021	38104	
2476	0	30464	32044	38096	
2477	0	30469	32016	38116	
2478	0	30474	31996	38092	
2479	0	30488	32028	38132	
2480	0	30496	32042	38108	
2481	0	30496	31993	38120	
2482	0	30500	32016	38152	
2483	0	30508	32044	38100	
2484	0	30520	32008	38108	
2485	0	30528	31992	38112	
2486	0	30529	32024	38120	
2487	0	30542	32028	38120	
2488	0	30544	32032	38096	
2489	0	30556	32001	38136	
2490	0	30560	32008	38104	
2491	0	30564	32032	38116	
2492	0	30576	31986	38112	
2493	0	30581	32020	38104	
2494	0	30589	32036	38140	
2495	0	30596	32017	38126	
2496	0	30604	32016	38120	
2497	0	30612	32004	38124	
2498	0	30612	32024	38105	
2499	0	30616	32008	38088	
2500	0	30632	32012	38136	
2501	0	30624	32025	38168	
2502	0	30640	32012	38144	
2503	0	30644	32016	38144	
2504	0	30650	32012	38124	
2505	0	30656	32020	38108	
2506	0	30668	32022	38088	
2507	0	30670	31993	38076	
2508	0	30680	32000	38108	
2509	0	30684	32020	38120	
2510	0	30688	32018	38096	
2511	0	30696	32008	38104	
2512	0	30704	32028	38100	
2513	0	30704	32008	38088	
2514	0	30712	32028	38089	
2515	0	30724	32001	38102	
2516	0	30728	32024	38144	
2517	0	30740	31984	38108	
2518	0	30748	32016	38128	
2519	0	30756	32016	38104	
2520	0	30757	32008	38148	
2521	0	30760	31988	38084	
2522	0	30772	31992	38084	
2523	0	30780	32008	38080	
2524	0	30792	32004	38136	
2525	0	30796	32028	38101	
2526	0	30794	32032	38096	
2527	0	30808	32008	38120	
2528	0	30816	31992	38109	
2529	0	30820	32012	38092	
2530	0	30836	32016	38124	
2531	0	30840	32024	38124	
2532	0	30852	32016	38184	
2533	0	30856	31977	38096	
2534	0	30872	31996	38080	
2535	0	30868	32001	38100	
2536	0	30864	32041	38156	
2537	0	30880	31996	38117	
2538	0	30892	31992	38096	
2539	0	30896	32029	38096	
2540	0	30900	32025	38104	
2541	0	30909	32005	38092	
2542	0	30912	32012	38068	
2543	0	30920	31996	38080	
2544	0	30920	32008	38108	
2545	0	30936	32001	38136	
2546	0	30936	31996	38128	
2547	0	30940	32004	38128	
2548	0	30952	32016	38132	
2549	0	30956	32006	38088	
2550	0	30968	32009	38080	
2551	0	30972	32004	38076	
2552	0	30976	32004	38092	
2553	0	30984	32008	38148	
2554	0	30988	32009	38112	
2555	0	30996	31988	38108	
2556	0	31000	32002	38116	
2557	0	31004	32024	38124	
2558	0	31010	32008	38128	
2559	0	31020	31977	38116	
2560	0	31025	31992	38112	
2561	0	31036	32000	38136	
2562	0	31040	32000	38100	
2563	0	31044	32004	38089	
2564	0	31048	32008	38100	
2565	0	31052	31976	38117	
2566	0	31068	32024	38080	
2567	0	31068	32012	38096	
2568	0	31076	32008	38116	
2569	0	31072	32009	38108	
2570	0	31088	31976	38084	
2571	0	31090	32000	38108	
2572	0	31096	31980	38132	
2573	0	31096	31985	38104	
2574	0	31104	31970	38100	
2575	0	31112	32008	38092	
2576	0	31120	31980	38120	
2577	0	31120	32020	38092	
2578	0	31132	32028	38084	
2579	0	31136	32012	38124	
2580	0	31144	32008	38108	
2581	0	31148	31976	38092	
2582	0	31152	32018	38092	
2583	0	31160	32028	38096	
2584	0	31162	31989	38092	
2585	0	31172	32013	38088	
2586	0	31180	31996	38128	
2587	0	31188	32000	38104	
2588	0	31184	32016	38108	
2589	0	31196	31973	38117	
2590	0	31200	31978	38116	
2591	0	31204	31993	38136	
2592	0	31212	31986	38132	
2593	0	31212	32008	38132	
2594	0	31236	31988	38116	
2595	0	31240	31976	38088	
2596	0	31246	31984	38116	
2597	0	31242	31996	38104	
2598	0	31256	31980	38116	
2599	0	31296	31976	38148	
2600	0	31260	31980	38092	
2601	0	31276	31988	38092	
2602	0	31288	32024	38076	
2603	0	31296	32012	38104	
2604	0	31296	32006	38116	
2605	0	31308	31996	38156	
2606	0	31320	32000	38128	
2607	0	31328	31981	38112	
2608	0	31336	31988	38096	
2609	0	31348	31980	38109	
2610	0	31352	31992	38096	
2611	0	31364	31996	38080	
2612	0	31360	31989	38128	
2613	0	31388	31980	38136	
2614	0	31388	32000	38104	
2615	0	31396	31977	38108	
2616	0	31408	31988	38108	
2617	0	31424	31993	38092	
2618	0	31428	32000	38096	
2619	0	31440	31996	38112	
2620	0	31444	32044	38120	
2621	0	31464	31956	38100	
2622	0	31469	31980	38084	
2623	0	31480	31972	38092	
2624	0	31488	31978	38112	
2625	0	31500	32004	38116	
2626	0	31512	31972	38092	
2627	0	31520	31989	38088	
2628	0	31536	32000	38096	
2629	0	31548	31980	38100	
2630	0	31557	31980	38120	
2631	0	31568	31988	38112	
2632	0	31580	32012	38080	
2633	0	31592	32004	38116	
2634	0	31597	31992	38092	
2635	0	31608	31980	38096	
2636	0	31628	32008	38060	
2637	0	31640	31976	38101	
2638	0	31652	31956	38096	
2639	0	31660	31988	38128	
2640	0	31668	31988	38124	
2641	0	31688	31976	38116	
2642	0	31700	31960	38112	
2643	0	31712	31956	38120	
2644	0	31724	31993	38120	
2645	0	31744	31976	38101	
2646	0	31754	31972	38112	
2647	0	31772	31948	38124	
2648	0	31780	31988	38080	
2649	0	31792	31953	38076	
2650	0	31808	31972	38136	
2651	0	31824	31978	38105	
2652	0	31832	31988	38080	
2653	0	31848	31960	38100	
2654	0	31864	31976	38132	
2655	0	31876	31968	38088	
2656	0	31888	31948	38096	
2657	0	31901	31968	38108	
2658	0	31936	31989	38088	
2659	0	31930	31988	38117	
2660	0	31952	31968	38088	
2661	0	31970	31984	38104	
2662	0	31980	31980	38108	
2663	0	31996	31985	38117	
2664	0	32008	31996	38120	
2665	0	32028	31992	38096	
2666	0	32045	31976	38100	
2667	0	32064	31964	38124	
2668	0	32084	31968	38108	
2669	0	32096	31945	38104	
2670	0	32116	32008	38132	
2671	0	32140	31988	38136	
2672	0	32144	31960	38104	
2673	0	32160	31980	38108	
2674	0	32188	32000	38137	
2675	0	32202	31980	38132	
2676	0	32224	31988	38108	
2677	0	32240	31968	38088	
2678	0	32260	31953	38136	
2679	0	32280	31968	38156	
2680	0	32304	31944	38148	
2681	0	32312	31953	38124	
2682	0	32332	31972	38112	
2683	0	32352	31960	38128	
2684	0	32372	31956	38112	
2685	0	32396	31952	38100	
2686	0	32416	31980	38141	
2687	0	32432	31968	38136	
2688	0	32448	31972	38116	
2689	0	32472	31968	38109	
2690	0	32492	31940	38124	
2691	0	32517	31972	38104	
2692	0	32536	31956	38064	
2693	0	32556	31956	38108	
2694	0	32576	31972	38120	
2695	0	32600	31962	38112	
2696	0	32620	31964	38100	
2697	0	32644	31940	38088	
2698	0	32652	31944	38104	
2699	0	32688	31936	38140	
2700	0	32708	31956	38096	
2701	0	32728	31944	38128	
2702	0	32752	31948	38116	
2703	0	32772	31968	38117	
2704	0	32800	31938	38112	
2705	0	32824	31920	38100	
2706	0	32844	31904	38137	
2707	0	32872	31917	38116	
2708	0	32884	31940	38120	
2709	0	32912	31936	38116	
2710	0	32940	31925	38108	
2711	0	32956	31924	38112	
2712	0	32981	31932	38144	
2713	0	33004	31940	38108	
2714	0	33024	31916	38100	
2715	0	33048	31924	38121	
2716	0	33072	31913	38104	
2717	0	33096	31912	38104	
2718	0	33128	31912	38084	
2719	0	33148	31934	38092	
2720	0	33165	31934	38084	
2721	0	33196	31968	38132	
2722	0	33217	31960	38102	
2723	0	33240	31948	38140	
2724	0	33268	31968	38112	
2725	0	33289	31952	38108	
2726	0	33316	31962	38100	
2727	0	33332	31962	38088	
2728	0	33360	31948	38116	
2729	0	33388	31937	38124	
2730	0	33408	31940	38124	
2731	0	33432	31948	38104	
2732	0	33456	31952	38128	
2733	0	33480	31948	38100	
2734	0	33504	31928	38140	
2735	0	33532	31944	38116	
2736	0	33548	31916	38108	
2737	0	33576	31924	38128	
2738	0	33600	31944	38144	
2739	0	33624	31948	38128	
2740	0	33652	31946	38124	
2741	0	33672	31936	38060	
2742	0	33696	31920	38092	
2743	0	33724	31918	38100	
2744	0	33748	31952	38076	
2745	0	33772	31924	38149	
2746	0	33792	31897	38109	
2747	0	33816	31880	38104	
2748	0	33844	31928	38104	
2749	0	33860	31928	38112	
2750	0	33888	31916	38072	
2751	0	33908	31908	38092	
2752	0	33944	31916	38108	
2753	0	33960	31909	38112	
2754	0	33980	31912	38120	
2755	0	34008	31904	38124	
2756	0	34028	31924	38100	
2757	0	34036	31920	38144	
2758	0	34084	31932	38108	
2759	0	34108	31952	38096	
2760	0	34136	31896	38084	
2761	0	34152	31916	38056	
2762	0	34181	31924	38136	
2763	0	34208	31942	38112	
2764	0	34234	31928	38132	
2765	0	34256	31896	38124	
2766	0	34280	31914	38112	
2767	0	34312	31876	38112	
2768	0	34332	31860	38120	
2769	0	34360	31876	38172	
2770	0	34384	31857	38112	
2771	0	34404	31884	38120	
2772	0	34436	31840	38121	
2773	0	34460	31868	38136	
2774	0	34490	31872	38132	
2775	0	34512	31844	38096	
2776	0	34544	31856	38116	
2777	0	34564	31856	38124	
2778	0	34593	31876	38100	
2779	0	34620	31849	38132	
2780	0	34648	31876	38132	
2781	0	34676	31872	38096	
2782	0	34692	31872	38112	
2783	0	34728	31872	38136	
2784	0	34752	31892	38141	
2785	0	34780	31880	38132	
2786	0	34812	31872	38137	
2787	0	34828	31817	38120	
2788	0	34860	31828	38124	
2789	0	34880	31816	38145	
2790	0	34908	31808	38128	
2791	0	34932	31812	38112	
2792	0	34964	31824	38112	
2793	0	34988	31808	38120	
2794	0	35012	31801	38132	
2795	0	35040	31820	38124	
2796	0	35076	31816	38100	
2797	0	35112	31844	38105	
2798	0	35112	31826	38104	
2799	0	35141	31816	38128	
2800	0	35168	31816	38120	
2801	0	35192	31808	38104	
2802	0	35216	31808	38132	
2803	0	35248	31808	38144	
2804	0	35264	31808	38140	
2805	0	35289	31752	38108	
2806	0	35320	31816	38080	
2807	0	35332	31780	38140	
2808	0	35368	31792	38124	
2809	0	35384	31778	38132	
2810	0	35416	31785	38128	
2811	0	35440	31796	38120	
2812	0	35464	31780	38097	
2813	0	35480	31760	38144	
2814	0	35508	31776	38125	
2815	0	35532	31780	38128	
2816	0	35556	31760	38136	
2817	0	35580	31764	38124	
2818	0	35592	31776	38112	
2819	0	35620	31768	38120	
2820	0	35640	31752	38160	
2821	0	35668	31764	38136	
2822	0	35688	31776	38144	
2823	0	35702	31764	38116	
2824	0	35732	31784	38152	
2825	0	35752	31748	38127	
2826	0	35776	31768	38105	
2827	0	35792	31748	38116	
2828	0	35812	31785	38101	
2829	0	35840	31728	38124	
2830	0	35864	31724	38116	
2831	0	35880	31712	38144	
2832	0	35904	31716	38128	
2833	0	35924	31712	38112	
2834	0	35940	31744	38160	
2835	0	35964	31729	38124	
2836	0	35980	31740	38140	
2837	0	35997	31713	38124	
2838	0	36020	31716	38140	
2839	0	36040	31728	38128	
2840	0	36060	31712	38132	
2841	0	36084	31696	38121	
2842	0	36101	31708	38120	
2843	0	36124	31716	38105	
2844	0	36136	31712	38137	
2845	0	36156	31712	38128	
2846	0	36180	31704	38120	
2847	0	36196	31732	38156	
2848	0	36216	31724	38092	
2849	0	36232	31712	38108	
2850	0	36254	31713	38128	
2851	0	36276	31708	38100	
2852	0	36296	31732	38116	
2853	0	36312	31716	38112	
2854	0	36336	31724	38112	
2855	0	36348	31728	38100	
2856	0	36364	31681	38152	
2857	0	36392	31688	38104	
2858	0	36400	31712	38132	
2859	0	36424	31712	38097	
2860	0	36440	31672	38116	
2861	0	36456	31672	38120	
2862	0	36480	31692	38096	
2863	0	36488	31688	38112	
2864	0	36502	31676	38148	
2865	0	36532	31696	38112	
2866	0	36544	31688	38120	
2867	0	36560	31680	38116	
2868	0	36576	31664	38160	
2869	0	36600	31668	38096	
2870	0	36608	31696	38120	
2871	0	36628	31696	38116	
2872	0	36648	31680	38092	
2873	0	36664	31690	38108	
2874	0	36676	31704	38092	
2875	0	36696	31681	38136	
2876	0	36708	31696	38108	
2877	0	36732	31680	38128	
2878	0	36740	31681	38089	
2879	0	36760	31664	38097	
2880	0	36768	31680	38128	
2881	0	36788	31668	38112	
2882	0	36800	31676	38112	
2883	0	36820	31688	38100	
2884	0	36832	31674	38088	
2885	0	36845	31660	38105	
2886	0	36864	31664	38120	
2887	0	36876	31664	38100	
2888	0	36896	31676	38084	
2889	0	36900	31680	38132	
2890	0	36916	31661	38084	
2891	0	36932	31660	38129	
2892	0	36944	31641	38124	
2893	0	36965	31652	38124	
2894	0	36976	31661	38128	
2895	0	36992	31652	38144	
2896	0	37004	31648	38148	
2897	0	37012	31640	38116	
2898	0	37032	31672	38128	
2899	0	37040	31664	38124	
2900	0	37052	31660	38108	
2901	0	37072	31649	38080	
2902	0	37088	31644	38088	
2903	0	37100	31652	38080	
2904	0	37112	31640	38124	
2905	0	37124	31644	38112	
2906	0	37140	31608	38112	
2907	0	37152	31640	38124	
2908	0	37160	31648	38113	
2909	0	37184	31660	38125	
2910	0	37188	31648	38100	
2911	0	37208	31648	38108	
2912	0	37216	31664	38112	
2913	0	37232	31680	38108	
2914	0	37248	31651	38097	
2915	0	37256	31637	38108	
2916	0	37272	31656	38112	
2917	0	37284	31636	38084	
2918	0	37288	31664	38089	
2919	0	37304	31646	38112	
2920	0	37316	31652	38112	
2921	0	37328	31674	38080	
2922	0	37332	31632	38100	
2923	0	37344	31656	38124	
2924	0	37368	31644	38104	
2925	0	37372	31656	38120	
2926	0	37384	31648	38128	
2927	0	37392	31636	38076	
2928	0	37404	31644	38100	
2929	0	37416	31632	38144	
2930	0	37436	31628	38152	
2931	0	37440	31652	38100	
2932	0	37456	31633	38097	
2933	0	37468	31636	38092	
2934	0	37472	31629	38124	
2935	0	37484	31668	38092	
2936	0	37488	31644	38072	
2937	0	37500	31664	38101	
2938	0	37508	31644	38132	
2939	0	37524	31648	38128	
2940	0	37532	31616	38116	
2941	0	37533	31660	38084	
2942	0	37544	31652	38108	
2943	0	37560	31648	38092	
2944	0	37552	31650	38092	
2945	0	37572	31648	38112	
2946	0	37580	31648	38092	
2947	0	37580	31656	38112	
2948	0	37596	31640	38084	
2949	0	37600	31652	38109	
2950	0	37600	31628	38090	
2951	0	37612	31642	38124	
2952	0	37620	31648	38108	
2953	0	37624	31633	38144	
2954	0	37628	31616	38132	
2955	0	37636	31648	38132	
2956	0	37632	31636	38108	
2957	0	37636	31628	38128	
2958	0	37648	31648	38108	
2959	0	37652	31648	38108	
2960	0	37648	31649	38148	
2961	0	37656	31636	38121	
2962	0	37664	31640	38144	
2963	0	37664	31661	38112	
2964	0	37664	31644	38096	
2965	0	37669	31632	38096	
2966	0	37668	31640	38124	
2967	0	37676	31628	38120	
2968	0	37668	31632	38132	
2969	0	37676	31636	38112	
2970	0	37676	31634	38144	
2971	0	37668	31620	38112	
2972	0	37668	31636	38116	
2973	0	37664	31640	38096	
2974	0	37672	31652	38112	
2975	0	37664	31637	38113	
2976	0	37668	31660	38104	
2977	0	37664	31644	38120	
2978	0	37660	31636	38100	
2979	0	37656	31656	38096	
2980	0	37653	31641	38124	
2981	0	37648	31633	38112	
2982	0	37636	31633	38084	
2983	0	37637	31644	38116	
2984	0	37636	31672	38100	
2985	0	37628	31660	38144	
2986	0	37616	31664	38184	
2987	0	37608	31596	38072	
2988	0	37596	31589	38092	
2989	0	37593	31652	38128	
2990	0	37584	31652	38152	
2991	0	37572	31632	38120	
2992	0	37560	31620	38124	
2993	0	37564	31624	38116	
2994	0	37544	31660	38104	
2995	0	37532	31628	38088	
2996	0	37528	31624	38116	
2997	0	37492	31644	38108	
2998	0	37500	31636	38096	
2999	0	37488	31636	38096	
3000	0	37464	31628	38108	
3001	0	37456	31617	38108	
3002	0	37448	31624	38120	
3003	0	37428	31620	38132	
3004	0	37416	31648	38116	
3005	0	37392	31624	38116	
3006	0	37372	31644	38128	
3007	0	37364	31660	38112	
3008	0	37344	31656	38096	
3009	0	37328	31644	38080	
3010	0	37308	31649	38080	
3011	0	37284	31660	38097	
3012	0	37268	31636	38124	
3013	0	37252	31632	38076	
3014	0	37224	31648	38076	
3015	0	37200	31632	38113	
3016	0	37184	31624	38112	
3017	0	37156	31640	38124	
3018	0	37136	31624	38100	
3019	0	37114	31632	38088	
3020	0	37092	31636	38096	
3021	0	37072	31644	38116	
3022	0	37036	31622	38112	
3023	0	37016	31620	38104	
3024	0	36992	31628	38120	
3025	0	36964	31628	38120	
3026	0	36948	31620	38108	
3027	0	36913	31620	38092	
3028	0	36888	31625	38116	
3029	0	36860	31664	38116	
3030	0	36836	31664	38112	
3031	0	36808	31656	38101	
3032	0	36784	31660	38104	
3033	0	36764	31664	38097	
3034	0	36716	31664	38112	
3035	0	36696	31656	38080	
3036	0	36664	31652	38100	
3037	0	36631	31647	38088	
3038	0	36612	31636	38112	
3039	0	36580	31650	38088	
3040	0	36548	31668	38080	
3041	0	36516	31636	38108	
3042	0	36488	31652	38080	
3043	0	36448	31648	38144	
3044	0	36432	31661	38120	
3045	0	36396	31648	38128	
3046	0	36360	31668	38104	
3047	0	36328	31708	38140	
3048	0	36304	31696	38140	
3049	0	36272	31684	38124	
3050	0	36236	31696	38124	
3051	0	36212	31704	38097	
3052	0	36180	31704	38076	
3053	0	36144	31680	38089	
3054	0	36112	31720	38084	
3055	0	36084	31700	38104	
3056	0	36040	31720	38108	
3057	0	36012	31685	38108	
3058	0	35981	31708	38128	
3059	0	35944	31720	38128	
3060	0	35920	31704	38112	
3061	0	35888	31692	38073	
3062	0	35848	31700	38068	
3063	0	35816	31756	38136	
3064	0	35777	31748	38124	
3065	0	35752	31740	38097	
3066	0	35716	31741	38100	
3067	0	35680	31760	38128	
3068	0	35648	31728	38112	
3069	0	35608	31716	38092	
3070	0	35580	31768	38116	
3071	0	35536	31750	38136	
3072	0	35512	31777	38096	
3073	0	35468	31772	38116	
3074	0	35433	31772	38092	
3075	0	35404	31768	38136	
3076	0	35360	31772	38133	
3077	0	35324	31793	38128	
3078	0	35284	31812	38140	
3079	0	35248	31816	38108	
3080	0	35216	31804	38110	
3081	0	35176	31812	38105	
3082	0	35144	31816	38109	
3083	0	35096	31812	38140	
3084	0	35060	31792	38128	
3085	0	35028	31800	38132	
3086	0	34992	31812	38109	
3087	0	34948	31773	38116	
3088	0	34913	31824	38120	
3089	0	34868	31816	38108	
3090	0	34832	31808	38124	
3091	0	34788	31834	38112	
3092	0	34760	31862	38141	
3093	0	34720	31848	38117	
3094	0	34680	31844	38128	
3095	0	34636	31860	38104	
3096	0	34601	31848	38116	
3097	0	34564	31848	38120	
3098	0	34516	31856	38104	
3099	0	34476	31826	38084	
3100	0	34430	31908	38116	
3101	0	34393	31868	38168	
3102	0	34353	31892	38136	
3103	0	34309	31872	38100	
3104	0	34260	31916	38088	
3105	0	34234	31968	38140	
3106	0	34180	31916	38149	
3107	0	34136	31904	38120	
3108	0	34096	31930	38132	
3109	0	34056	31908	38124	
3110	0	34012	31896	38116	
3111	0	33968	31912	38136	
3112	0	33924	31908	38117	
3113	0	33884	31916	38120	
3114	0	33832	31900	38124	
3115	0	33796	31876	38120	
3116	0	33752	31928	38120	
3117	0	33704	31928	38136	
3118	0	33664	31924	38128	
3119	0	33620	31940	38068	
3120	0	33572	31957	38137	
3121	0	33528	31980	38153	
3122	0	33480	31976	38129	
3123	0	33445	31932	38104	
3124	0	33392	31926	38144	
3125	0	33352	31941	38108	
3126	0	33304	31944	38148	
3127	0	33256	31975	38140	
3128	0	33205	31992	38088	
3129	0	33168	31932	38132	
3130	0	33116	31948	38132	
3131	0	33072	31924	38136	
3132	0	33028	31909	38124	
3133	0	32980	31920	38140	
3134	0	32928	31952	38088	
3135	0	32888	31928	38108	
3136	0	32841	31938	38132	
3137	0	32797	31936	38121	
3138	0	32752	31980	38092	
3139	0	32705	31972	38097	
3140	0	32664	31968	38120	
3141	0	32612	31996	38112	
3142	0	32568	31984	38132	
3143	0	32520	31968	38132	
3144	0	32480	31966	38124	
3145	0	32432	31988	38128	
3146	0	32384	31984	38132	
3147	0	32340	31980	38108	
3148	0	32300	31985	38108	
3149	0	32256	31968	38124	
3150	0	32213	32000	38092	
3151	0	32168	31988	38100	
3152	0	32120	32000	38144	
3153	0	32080	32001	38144	
3154	0	32040	31994	38108	
3155	0	31988	32028	38144	
3156	0	31952	31988	38136	
3157	0	31904	32012	38116	
3158	0	31872	32016	38124	
3159	0	31824	32024	38120	
3160	0	31784	32000	38092	
3161	0	31740	32016	38100	
3162	0	31700	32029	38108	
3163	0	31656	32000	38104	
3164	0	31620	32012	38116	
3165	0	31584	32004	38124	
3166	0	31536	32020	38124	
3167	0	31492	32024	38136	
3168	0	31461	32024	38120	
3169	0	31422	32008	38116	
3170	0	31376	32029	38149	
3171	0	31336	32012	38124	
3172	0	31296	32032	38112	
3173	0	31256	32033	38108	
3174	0	31220	32032	38136	
3175	0	31180	32024	38125	
3176	0	31140	32052	38112	
3177	0	31100	32029	38112	
3178	0	31072	32048	38096	
3179	0	31028	32042	38108	
3180	0	30992	32044	38140	
3181	0	30948	32026	38108	
3182	0	30912	32040	38132	
3183	0	30880	32040	38128	
3184	0	30848	32029	38133	
3185	0	30816	32044	38161	
3186	0	30780	32038	38096	
3187	0	30740	32026	38120	
3188	0	30704	32012	38124	
3189	0	30672	32017	38108	
3190	0	30636	32044	38128	
3191	0	30608	32028	38124	
3192	0	30568	32028	38124	
3193	0	30532	32028	38128	
3194	0	30500	32024	38092	
3195	0	30469	32028	38100	
3196	0	30436	32031	38132	
3197	0	30405	32044	38112	
3198	0	30376	32012	38096	
3199	0	30344	32068	38088	
3200	0	30308	32020	38120	
3201	0	30284	32048	38100	
3202	0	30260	32028	38108	
3203	0	30220	32064	38116	
3204	0	30188	32052	38128	
3205	0	30160	32033	38096	
3206	0	30136	32036	38104	
3207	0	30101	32040	38112	
3208	0	30080	32040	38116	
3209	0	30048	32036	38120	
3210	0	30024	32032	38104	
3211	0	29988	32032	38120	
3212	0	29968	32032	38104	
3213	0	29940	32032	38108	
3214	0	29920	32024	38140	
3215	0	29890	32030	38140	
3216	0	29864	32012	38132	
3217	0	29840	32020	38120	
3218	0	29805	32040	38100	
3219	0	29789	32044	38108	
3220	0	29768	32048	38112	
3221	0	29740	32044	38108	
3222	0	29716	32044	38124	
3223	0	29696	32028	38140	
3224	0	29668	32024	38140	
3225	0	29648	32006	38132	
3226	0	29632	32036	38100	
3227	0	29600	32042	38140	
3228	0	29588	32036	38121	
3229	0	29569	32037	38112	
3230	0	29545	32020	38128	
3231	0	29524	32016	38160	
3232	0	29504	32028	38136	
3233	0	29488	32052	38108	
3234	0	29468	32010	38132	
3235	0	29449	32032	38108	
3236	0	29433	32012	38120	
3237	0	29412	32016	38128	
3238	0	29392	32041	38140	
3239	0	29376	32032	38116	
3240	0	29358	32020	38144	
3241	0	29344	32032	38144	
3242	0	29328	32016	38153	
3243	0	29316	32016	38128	
3244	0	29304	32024	38136	
3245	0	29288	32032	38140	
3246	0	29277	32032	38110	
3247	0	29256	32016	38112	
3248	0	29244	32045	38112	
3249	0	29228	32016	38096	
3250	0	29216	32044	38108	
3251	0	29208	32044	38120	
3252	0	29200	32033	38148	
3253	0	29180	32020	38128	
3254	0	29168	31992	38100	
3255	0	29160	32032	38128	
3256	0	29150	32028	38136	
3257	0	29142	32016	38088	
3258	0	29128	32004	38156	
3259	0	29124	32032	38132	
3260	0	29108	32000	38148	
3261	0	29096	32024	38132	
3262	0	29092	32025	38136	
3263	0	29088	32016	38124	
3264	0	29076	32037	38112	
3265	0	29068	32024	38136	
3266	0	29060	32032	38108	
3267	0	29048	32024	38088	
3268	0	29048	32016	38108	
3269	0	29040	32056	38088	
3270	0	29032	32048	38096	
3271	0	29025	32024	38112	
3272	0	29013	32048	38132	
3273	0	29016	32004	38132	
3274	0	29008	32020	38140	
3275	0	29000	32052	38160	
3276	0	29000	32012	38112	
3277	0	28996	32046	38140	
3278	0	28992	32024	38112	
3279	0	28992	32016	38128	
3280	0	28984	32028	38100	
3281	0	28980	32028	38096	
3282	0	28978	32020	38120	
3283	0	28972	32048	38120	
3284	0	28972	32036	38096	
3285	0	28964	32044	38116	
3286	0	28964	32016	38172	
3287	0	28968	32040	38124	
3288	0	28964	32032	38128	
3289	0	28960	32032	38122	
3290	0	28964	32024	38144	
3291	0	28960	32013	38132	
3292	0	28962	32024	38128	
3293	0	28960	32036	38146	
3294	0	28960	32016	38136	
3295	0	28960	32024	38116	
3296	0	28964	32032	38116	
3297	0	28972	32028	38112	
3298	0	28964	32008	38132	
3299	0	28964	32028	38132	
3300	0	28964	32032	38120	
3301	0	28964	32028	38088	
3302	0	28968	32012	38108	
3303	0	28972	32017	38108	
3304	0	28972	32012	38116	
3305	0	28972	32044	38104	
3306	0	28980	32024	38144	
3307	0	28984	32028	38124	
3308	0	28988	32012	38116	
3309	0	28992	32025	38124	
3310	0	28996	32024	38112	
3311	0	28993	32032	38124	
3312	0	29002	32020	38120	
3313	0	29006	32028	38104	
3314	0	29017	32020	38140	
3315	0	29020	32036	38128	
3316	0	29020	32041	38128	
3317	0	29028	32024	38092	
3318	0	29032	32036	38108	
3319	0	29037	32048	38085	
3320	0	29040	32016	38108	
3321	0	29052	32033	38124	
3322	0	29056	32020	38084	
3323	0	29056	32028	38128	
3324	0	29060	32016	38104	
3325	0	29073	32020	38132	
3326	0	29079	32020	38116	
3327	0	29084	32044	38108	
3328	0	29088	32044	38136	
3329	0	29096	32041	38112	
3330	0	29100	32020	38152	
3331	0	29108	32025	38096	
3332	0	29112	32022	38112	
3333	0	29120	32020	38092	
3334	0	29124	32037	38109	
3335	0	29136	32024	38116	
3336	0	29132	32008	38128	
3337	0	29148	32033	38140	
3338	0	29148	32036	38104	
3339	0	29152	32044	38144	
3340	0	29160	32032	38112	
3341	0	29169	32020	38104	
3342	0	29173	32032	38120	
3343	0	29180	32032	38140	
3344	0	29181	32012	38120	
3345	0	29192	32056	38101	
3346	0	29200	32020	38124	
3347	0	29200	32032	38132	
3348	0	29212	32012	38160	
3349	0	29224	32032	38108	
3350	0	29224	32012	38128	
3351	0	29232	32041	38100	
3352	0	29242	32032	38124	
3353	0	29240	32020	38116	
3354	0	29249	32024	38108	
3355	0	29264	32028	38080	
3356	0	29265	32048	38112	
3357	0	29272	32048	38128	
3358	0	29281	32024	38100	
3359	0	29276	32040	38100	
3360	0	29292	32048	38112	
3361	0	29300	32040	38092	
3362	0	29310	32044	38100	
3363	0	29312	32048	38096	
3364	0	29316	32018	38116	
3365	0	29324	32040	38092	
3366	0	29336	32028	38108	
3367	0	29332	32032	38112	
3368	0	29344	32040	38100	
3369	0	29348	32040	38096	
3370	0	29360	32032	38088	
3371	0	29368	32017	38100	
3372	0	29372	32016	38120	
3373	0	29380	32052	38112	
3374	0	29388	32016	38104	
3375	0	29396	32024	38120	
3376	0	29400	32040	38128	
3377	0	29400	32020	38136	
3378	0	29416	32020	38128	
3379	0	29424	32005	38120	
3380	0	29428	32009	38124	
3381	0	29440	32017	38080	
3382	0	29449	32021	38112	
3383	0	29460	32008	38128	
3384	0	29465	32009	38124	
3385	0	29472	32020	38109	
3386	0	29476	32012	38108	
3387	0	29480	32016	38136	
3388	0	29492	32005	38100	
3389	0	29500	32032	38112	
3390	0	29508	32020	38124	
3391	0	29512	32020	38144	
3392	0	29520	32033	38144	
3393	0	29536	32048	38112	
3394	0	29541	32016	38124	
3395	0	29556	32040	38116	
3396	0	29561	32036	38137	
3397	0	29568	32028	38120	
3398	0	29577	32048	38113	
3399	0	29573	32009	38105	
3400	0	29593	32052	38128	
3401	0	29608	32032	38096	
3402	0	29612	32024	38108	
3403	0	29621	32028	38124	
3404	0	29632	32032	38113	
3405	0	29636	32016	38128	
3406	0	29644	32000	38132	
3407	0	29660	32044	38112	
3408	0	29668	32016	38116	
3409	0	29678	32012	38132	
3410	0	29680	32020	38140	
3411	0	29696	32012	38128	
3412	0	29704	32032	38126	
3413	0	29712	32032	38100	
3414	0	29729	32037	38112	
3415	0	29728	32050	38108	
3416	0	29742	32042	38116	
3417	0	29752	32044	38092	
3418	0	29756	32036	38140	
3419	0	29770	32040	38116	
3420	0	29777	32020	38117	
3421	0	29793	32040	38100	
3422	0	29798	32001	38112	
3423	0	29812	32016	38096	
3424	0	29812	32040	38112	
3425	0	29828	32052	38112	
3426	0	29844	32016	38116	
3427	0	29844	32048	38096	
3428	0	29852	32040	38088	
3429	0	29864	32040	38112	
3430	0	29872	32044	38116	
3431	0	29880	32032	38092	
3432	0	29892	32028	38092	
3433	0	29900	32048	38108	
3434	0	29912	32016	38137	
3435	0	29920	32036	38104	
3436	0	29928	32028	38108	
3437	0	29938	32028	38112	
3438	0	29952	32036	38136	
3439	0	29957	32048	38100	
3440	0	29972	32044	38128	
3441	0	29976	32028	38112	
3442	0	29985	32025	38113	
3443	0	29992	32056	38112	
3444	0	30008	32040	38084	
3445	0	30016	32048	38076	
3446	0	30024	32024	38106	
3447	0	30036	32020	38124	
3448	0	30038	32018	38128	
3449	0	30048	32028	38132	
3450	0	30056	32028	38116	
3451	0	30069	32012	38108	
3452	0	30080	32020	38118	
3453	0	30092	32056	38112	
3454	0	30101	32036	38120	
3455	0	30108	32040	38112	
3456	0	30116	32048	38116	
3457	0	30133	32028	38112	
3458	0	30140	32028	38120	
3459	0	30144	32028	38108	
3460	0	30160	32032	38112	
3461	0	30164	32072	38156	
3462	0	30176	31968	38060	
3463	0	30184	32016	38044	
3464	0	30196	32004	38108	
3465	0	30201	32036	38124	
3466	0	30220	32024	38124	
3467	0	30217	32020	38120	
3468	0	30224	32028	38136	
3469	0	30236	32021	38140	
3470	0	30246	32017	38092	
3471	0	30256	32016	38096	
3472	0	30268	32028	38108	
3473	0	30276	32042	38108	
3474	0	30284	32024	38112	
3475	0	30294	32005	38125	
3476	0	30304	32008	38132	
3477	0	30308	32016	38100	
3478	0	30324	32032	38117	
3479	0	30330	32004	38108	
3480	0	30338	32004	38124	
3481	0	30348	32036	38100	
3482	0	30361	32017	38120	
3483	0	30368	32020	38116	
3484	0	30373	32002	38128	
3485	0	30392	32008	38072	
3486	0	30392	32001	38108	
3487	0	30400	32004	38128	
3488	0	30412	32017	38112	
3489	0	30424	32012	38088	
3490	0	30432	32012	38092	
3491	0	30440	32024	38116	
3492	0	30452	32008	38100	
3493	0	30460	31992	38132	
3494	0	30476	31988	38132	
3495	0	30488	32020	38136	
3496	0	30508	32024	38124	
3497	0	30508	32016	38108	
3498	0	30520	32012	38104	
3499	0	30528	32032	38120	
3500	0	30530	32028	38104	
3501	0	30549	32032	38116	
3502	0	30558	32036	38080	
3503	0	30572	32028	38104	
3504	0	30580	32032	38088	
3505	0	30596	32016	38113	
3506	0	30600	32013	38096	
3507	0	30620	32004	38088	
3508	0	30628	32033	38132	
3509	0	30640	32020	38112	
3510	0	30652	32012	38116	
3511	0	30664	32025	38124	
3512	0	30672	32024	38148	
3513	0	30688	31996	38158	
3514	0	30698	32008	38128	
3515	0	30717	32008	38148	
3516	0	30728	32025	38112	
3517	0	30732	32004	38112	
3518	0	30753	32004	38104	
3519	0	30761	32036	38080	
3520	0	30776	32004	38096	
3521	0	30792	32020	38104	
3522	0	30806	32020	38108	
3523	0	30816	31984	38124	
3524	0	30828	31992	38117	
3525	0	30836	32000	38121	
3526	0	30860	32004	38128	
3527	0	30868	31996	38116	
3528	0	30880	32000	38116	
3529	0	30892	32004	38116	
3530	0	30912	32020	38112	
3531	0	30920	32032	38088	
3532	0	30928	32025	38108	
3533	0	30944	32028	38100	
3534	0	30956	32004	38116	
3535	0	30976	32005	38120	
3536	0	30988	32024	38112	
3537	0	31001	32015	38108	
3538	0	31012	32012	38112	
3539	0	31024	32020	38116	
3540	0	31040	32040	38144	
3541	0	31048	32040	38172	
3542	0	31070	32069	38244	
3543	0	31076	32020	38148	
3544	0	31092	31969	37996	
3545	0	31104	31996	38084	
3546	0	31120	32036	38112	
3547	0	31128	32057	38096	
3548	0	31144	31972	38108	
3549	0	31158	31984	38104	
3550	0	31172	32009	38100	
3551	0	31180	32036	38100	
3552	0	31200	31984	38100	
3553	0	31212	32000	38092	
3554	0	31220	32004	38100	
3555	0	31232	32000	38112	
3556	0	31249	31968	38140	
3557	0	31257	31972	38120	
3558	0	31276	32000	38145	
3559	0	31282	31996	38136	
3560	0	31300	32009	38132	
3561	0	31320	32016	38084	
3562	0	31328	32008	38124	
3563	0	31336	31984	38100	
3564	0	31349	32004	38092	
3565	0	31360	31972	38084	
3566	0	31370	32000	38120	
3567	0	31388	31993	38124	
3568	0	31392	31972	38112	
3569	0	31400	31996	38092	
3570	0	31416	31986	38120	
3571	0	31429	31972	38057	
3572	0	31440	31992	38100	
3573	0	31452	32004	38128	
3574	0	31468	31992	38120	
3575	0	31480	31968	38108	
3576	0	31488	31988	38088	
3577	0	31504	32016	38108	
3578	0	31504	32032	38100	
3579	0	31516	32004	38088	
3580	0	31532	31988	38124	
3581	0	31540	31992	38091	
3582	0	31548	31968	38088	
3583	0	31560	31972	38096	
3584	0	31572	31969	38124	
3585	0	31574	32004	38100	
3586	0	31589	31992	38104	
3587	0	31604	31988	38096	
3588	0	31608	31969	38116	
3589	0	31624	31972	38108	
3590	0	31632	31996	38108	
3591	0	31636	32000	38108	
3592	0	31648	31996	38120	
3593	0	31656	31972	38092	
3594	0	31664	31996	38108	
3595	0	31680	31992	38088	
3596	0	31692	31996	38089	
3597	0	31696	31968	38080	
3598	0	31708	31984	38096	
3599	0	31716	32001	38080	
3600	0	31724	31992	38112	
3601	0	31740	31988	38080	
3602	0	31748	31973	38092	
3603	0	31753	31953	38096	
3604	0	31760	31968	38096	
3605	0	31772	31984	38112	
3606	0	31777	31984	38120	
3607	0	31788	31996	38112	
3608	0	31796	31992	38100	
3609	0	31804	31968	38112	
3610	0	31808	31968	38129	
3611	0	31828	31952	38112	
3612	0	31833	31968	38140	
3613	0	31844	31972	38112	
3614	0	31853	31968	38108	
3615	0	31860	31972	38128	
3616	0	31872	31977	38092	
3617	0	31880	31981	38104	
3618	0	31884	31960	38128	
3619	0	31897	31992	38092	
3620	0	31904	31965	38088	
3621	0	31912	31977	38080	
3622	0	31916	31992	38076	
3623	0	31928	31976	38112	
3624	0	31936	31982	38096	
3625	0	31948	31964	38108	
3626	0	31956	31956	38112	
3627	0	31964	31968	38100	
3628	0	31972	31953	38096	
3629	0	31982	31948	38104	
3630	0	31988	31962	38112	
3631	0	31996	31972	38120	
3632	0	32004	31971	38112	
3633	0	32008	31964	38120	
3634	0	32020	31984	38140	
3635	0	32025	31996	38084	
3636	0	32032	31970	38118	
3637	0	32040	31980	38092	
3638	0	32050	31976	38124	
3639	0	32052	31980	38104	
3640	0	32072	31976	38128	
3641	0	32072	31976	38105	
3642	0	32093	31956	38116	
3643	0	32100	31964	38144	
3644	0	32104	31981	38104	
3645	0	32108	31984	38084	
3646	0	32121	31969	38124	
3647	0	32128	31952	38124	
3648	0	32132	31968	38120	
3649	0	32148	31968	38100	
3650	0	32152	31972	38126	
3651	0	32160	31952	38124	
3652	0	32180	31984	38080	
3653	0	32180	32036	38136	
3654	0	32192	31982	38133	
3655	0	32196	31958	38080	
3656	0	32204	31928	38088	
3657	0	32216	31964	38116	
3658	0	32224	31952	38112	
3659	0	32229	31981	38061	
3660	0	32240	31952	38104	
3661	0	32248	31970	38080	
3662	0	32256	31960	38144	
3663	0	32268	31905	38136	
3664	0	32276	31912	38117	
3665	0	32284	31936	38124	
3666	0	32293	31929	38104	
3667	0	32300	31940	38112	
3668	0	32308	31940	38088	
3669	0	32320	31956	38100	
3670	0	32328	31912	38116	
3671	0	32336	31968	38104	
3672	0	32344	31936	38092	
3673	0	32352	31952	38084	
3674	0	32372	31936	38108	
3675	0	32380	31908	38144	
3676	0	32386	31958	38128	
3677	0	32396	31952	38124	
3678	0	32408	31933	38094	
3679	0	32416	31936	38100	
3680	0	32416	31928	38088	
3681	0	32432	31944	38076	
3682	0	32444	31936	38112	
3683	0	32456	31932	38140	
3684	0	32464	31936	38108	
3685	0	32468	31944	38088	
3686	0	32476	31948	38124	
3687	0	32492	31976	38080	
3688	0	32504	31956	38136	
3689	0	32508	31952	38112	
3690	0	32528	31932	38124	
3691	0	32532	31928	38112	
3692	0	32544	31932	38097	
3693	0	32552	31953	38096	
3694	0	32560	31952	38084	
3695	0	32580	31920	38081	
3696	0	32592	31929	38088	
3697	0	32600	31936	38116	
3698	0	32609	31944	38120	
3699	0	32617	31952	38108	
3700	0	32636	31941	38101	
3701	0	32652	31936	38116	
3702	0	32652	31952	38076	
3703	0	32668	31948	38096	
3704	0	32672	31956	38096	
3705	0	32688	31952	38100	
3706	0	32704	31940	38088	
3707	0	32718	31932	38096	
3708	0	32732	31944	38108	
3709	0	32744	31929	38084	
3710	0	32753	31936	38088	
3711	0	32768	31900	38100	
3712	0	32788	31905	38145	
3713	0	32800	31896	38148	
3714	0	32809	31892	38081	
3715	0	32828	31896	38116	
3716	0	32840	31904	38080	
3717	0	32852	31916	38089	
3718	0	32872	31908	38112	
3719	0	32912	31905	38116	
3720	0	32892	31922	38124	
3721	0	32912	31920	38160	
3722	0	32921	31912	38108	
3723	0	32940	31908	38100	
3724	0	32948	31912	38116	
3725	0	32964	31920	38112	
3726	0	32984	31944	38136	
3727	0	32996	31904	38120	
3728	0	33016	31901	38116	
3729	0	33040	31904	38116	
3730	0	33048	31921	38100	
3731	0	33064	31912	38144	
3732	0	33080	31912	38112	
3733	0	33098	31920	38136	
3734	0	33116	31920	38124	
3735	0	33128	31934	38088	
3736	0	33148	31916	38128	
3737	0	33162	31913	38092	
3738	0	33180	31944	38100	
3739	0	33192	31932	38088	
3740	0	33216	31960	38089	
3741	0	33225	31952	38096	
3742	0	33252	31956	38096	
3743	0	33260	31944	38101	
3744	0	33280	31944	38080	
3745	0	33296	31944	38100	
3746	0	33312	31952	38104	
3747	0	33328	31920	38124	
3748	0	33344	31916	38084	
3749	0	33360	31940	38081	
3750	0	33384	31948	38101	
3751	0	33392	31936	38104	
3752	0	33408	31924	38116	
3753	0	33428	31929	38121	
3754	0	33444	31936	38108	
3755	0	33464	31932	38097	
3756	0	33484	31916	38090	
3757	0	33492	31944	38100	
3758	0	33520	31936	38072	
3759	0	33536	31932	38104	
3760	0	33552	31928	38100	
3761	0	33560	31912	38112	
3762	0	33585	31940	38100	
3763	0	33600	31908	38096	
3764	0	33620	31944	38096	
3765	0	33640	31932	38080	
3766	0	33660	31944	38085	
3767	0	33680	31932	38080	
3768	0	33688	31956	38088	
3769	0	33708	31924	38092	
3770	0	33732	31912	38120	
3771	0	33752	31924	38100	
3772	0	33760	31937	38136	
3773	0	33788	31920	38124	
3774	0	33808	31912	38084	
3775	0	33824	31892	38100	
3776	0	33844	31872	38108	
3777	0	33860	31877	38096	
3778	0	33885	31876	38084	
3779	0	33904	31884	38100	
3780	0	33925	31900	38112	
3781	0	33940	31878	38100	
3782	0	33968	31876	38132	
3783	0	33976	31888	38116	
3784	0	34008	31900	38096	
3785	0	34020	31884	38132	
3786	0	34052	31892	38112	
3787	0	34068	31896	38096	
3788	0	34096	31868	38141	
3789	0	34112	31892	38101	
3790	0	34144	31906	38078	
3791	0	34164	31884	38108	
3792	0	34188	31854	38096	
3793	0	34204	31856	38124	
3794	0	34232	31872	38124	
3795	0	34260	31890	38132	
3796	0	34276	31876	38088	
3797	0	34308	31824	38088	
3798	0	34324	31860	38081	
3799	0	34349	31836	38116	
3800	0	34376	31832	38112	
3801	0	34408	31820	38100	
3802	0	34424	31845	38094	
3803	0	34452	31828	38132	
3804	0	34476	31824	38116	
3805	0	34504	31824	38108	
3806	0	34528	31833	38116	
3807	0	34560	31852	38100	
3808	0	34580	31836	38108	
3809	0	34612	31833	38100	
3810	0	34632	31828	38124	
3811	0	34660	31840	38136	
3812	0	34680	31836	38100	
3813	0	34716	31824	38116	
3814	0	34744	31828	38120	
3815	0	34768	31829	38120	
3816	0	34792	31809	38102	
3817	0	34824	31784	38112	
3818	0	34852	31800	38100	
3819	0	34873	31780	38096	
3820	0	34900	31792	38120	
3821	0	34932	31784	38112	
3822	0	34960	31788	38112	
3823	0	34984	31764	38082	
3824	0	35012	31788	38108	
3825	0	35040	31780	38127	
3826	0	35064	31796	38112	
3827	0	35096	31797	38120	
3828	0	35116	31808	38128	
3829	0	35148	31808	38128	
3830	0	35180	31800	38164	
3831	0	35204	31777	38105	
3832	0	35232	31796	38084	
3833	0	35248	31772	38128	
3834	0	35276	31777	38101	
3835	0	35302	31773	38136	
3836	0	35336	31744	38100	
3837	0	35356	31745	38117	
3838	0	35388	31717	38096	
3839	0	35416	31724	38136	
3840	0	35436	31724	38121	
3841	0	35462	31720	38108	
3842	0	35488	31728	38132	
3843	0	35508	31736	38124	
3844	0	35544	31732	38120	
3845	0	35576	31724	38112	
3846	0	35584	31728	38108	
3847	0	35609	31740	38088	
3848	0	35636	31736	38076	
3849	0	35664	31740	38100	
3850	0	35681	31720	38096	
3851	0	35708	31728	38124	
3852	0	35732	31748	38108	
3853	0	35752	31725	38104	
3854	0	35772	31724	38100	
3855	0	35792	31740	38092	
3856	0	35820	31722	38100	
3857	0	35852	31676	38145	
3858	0	35869	31709	38121	
3859	0	35896	31652	38124	
3860	0	35914	31673	38116	
3861	0	35936	31678	38080	
3862	0	35956	31688	38092	
3863	0	35984	31676	38112	
3864	0	36008	31680	38097	
3865	0	36020	31688	38108	
3866	0	36040	31680	38116	
3867	0	36064	31689	38124	
3868	0	36088	31680	38104	
3869	0	36100	31681	38120	
3870	0	36124	31696	38096	
3871	0	36148	31689	38144	
3872	0	36160	31696	38104	
3873	0	36180	31688	38116	
3874	0	36204	31704	38105	
3875	0	36224	31680	38104	
3876	0	36240	31696	38081	
3877	0	36260	31672	38108	
3878	0	36273	31684	38112	
3879	0	36300	31700	38092	
3880	0	36316	31676	38112	
3881	0	36328	31708	38080	
3882	0	36352	31652	38100	
3883	0	36364	31652	38096	
3884	0	36380	31672	38124	
3885	0	36404	31669	38100	
3886	0	36416	31652	38108	
3887	0	36424	31648	38110	
3888	0	36447	31652	38108	
3889	0	36460	31656	38124	
3890	0	36472	31664	38124	
3891	0	36486	31648	38120	
3892	0	36496	31636	38122	
3893	0	36508	31648	38108	
3894	0	36521	31665	38128	
3895	0	36536	31644	38096	
3896	0	36552	31637	38128	
3897	0	36552	31656	38096	
3898	0	36569	31648	38088	
3899	0	36580	31653	38108	
3900	0	36588	31638	38104	
3901	0	36600	31656	38104	
3902	0	36608	31628	38112	
3903	0	36628	31637	38092	
3904	0	36628	31652	38100	
3905	0	36644	31652	38116	
3906	0	36648	31644	38096	
3907	0	36656	31668	38112	
3908	0	36668	31644	38104	
3909	0	36676	31640	38124	
3910	0	36680	31633	38116	
3911	0	36688	31637	38092	
3912	0	36708	31640	38117	
3913	0	36704	31656	38120	
3914	0	36717	31644	38112	
3915	0	36728	31648	38120	
3916	0	36740	31633	38149	
3917	0	36740	31628	38116	
3918	0	36756	31642	38084	
3919	0	36760	31622	38112	
3920	0	36760	31652	38128	
3921	0	36768	31645	38132	
3922	0	36776	31632	38108	
3923	0	36780	31642	38113	
3924	0	36788	31661	38116	
3925	0	36800	31652	38100	
3926	0	36800	31646	38072	
3927	0	36804	31636	38112	
3928	0	36820	31632	38108	
3929	0	36820	31632	38104	
3930	0	36824	31656	38112	
3931	0	36836	31656	38112	
3932	0	36840	31660	38108	
3933	0	36840	31649	38124	
3934	0	36844	31636	38116	
3935	0	36844	31648	38116	
3936	0	36856	31636	38132	
3937	0	36856	31656	38120	
3938	0	36864	31628	38104	
3939	0	36876	31612	38088	
3940	0	36876	31628	38088	
3941	0	36876	31632	38097	
3942	0	36880	31640	38108	
3943	0	36888	31640	38104	
3944	0	36884	31645	38124	
3945	0	36896	31640	38100	
3946	0	36896	31641	38108	
3947	0	36896	31624	38124	
3948	0	36900	31624	38120	
3949	0	36904	31624	38130	
3950	0	36904	31626	38112	
3951	0	36904	31632	38124	
3952	0	36908	31640	38144	
3953	0	36900	31645	38112	
3954	0	36908	31628	38116	
3955	0	36908	31646	38080	
3956	0	36905	31628	38090	
3957	0	36908	31630	38100	
3958	0	36916	31633	38080	
3959	0	36916	31632	38108	
3960	0	36904	31616	38072	
3961	0	36900	31617	38096	
3962	0	36904	31616	38104	
3963	0	36904	31632	38109	
3964	0	36904	31628	38132	
3965	0	36896	31628	38116	
3966	0	36896	31632	38140	
3967	0	36900	31645	38108	
3968	0	36896	31626	38116	
3969	0	36896	31672	38116	
3970	0	36896	31620	38105	
3971	0	36884	31624	38116	
3972	0	36876	31628	38140	
3973	0	36876	31617	38112	
3974	0	36872	31640	38136	
3975	0	36874	31640	38081	
3976	0	36864	31640	38089	
3977	0	36860	31652	38088	
3978	0	36856	31620	38096	
3979	0	36844	31640	38104	
3980	0	36836	31632	38136	
3981	0	36836	31636	38080	
3982	0	36828	31632	38084	
3983	0	36828	31656	38104	
3984	0	36820	31672	38124	
3985	0	36816	31657	38092	
3986	0	36808	31636	38100	
3987	0	36796	31664	38116	
3988	0	36793	31668	38120	
3989	0	36788	31656	38100	
3990	0	36772	31664	38120	
3991	0	36772	31672	38108	
3992	0	36764	31656	38112	
3993	0	36748	31658	38120	
3994	0	36736	31644	38100	
3995	0	36728	31645	38112	
3996	0	36720	31640	38124	
3997	0	36712	31652	38084	
3998	0	36704	31648	38108	
3999	0	36684	31645	38090	
4000	0	36676	31664	38084	
4001	0	36668	31636	38100	
4002	0	36656	31656	38068	
4003	0	36644	31656	38096	
4004	0	36632	31632	38101	
4005	0	36620	31652	38090	
4006	0	36608	31656	38108	
4007	0	36592	31696	38092	
4008	0	36578	31668	38128	
4009	0	36576	31652	38121	
4010	0	36560	31652	38118	
4011	0	36552	31648	38124	
4012	0	36532	31640	38108	
4013	0	36512	31664	38104	
4014	0	36508	31636	38112	
4015	0	36500	31672	38132	
4016	0	36484	31664	38128	
4017	0	36472	31672	38112	
4018	0	36460	31668	38108	
4019	0	36444	31681	38092	
4020	0	36436	31664	38108	
4021	0	36416	31656	38132	
4022	0	36400	31656	38080	
4023	0	36388	31665	38128	
4024	0	36372	31668	38128	
4025	0	36368	31652	38104	
4026	0	36340	31684	38140	
4027	0	36336	31692	38100	
4028	0	36320	31704	38112	
4029	0	36304	31712	38100	
4030	0	36289	31690	38108	
4031	0	36276	31681	38112	
4032	0	36268	31704	38116	
4033	0	36244	31676	38104	
4034	0	36236	31672	38120	
4035	0	36224	31684	38092	
4036	0	36216	31712	38124	
4037	0	36192	31692	38112	
4038	0	36180	31688	38121	
4039	0	36140	31688	38092	
4040	0	36152	31705	38109	
4041	0	36132	31712	38088	
4042	0	36124	31708	38116	
4043	0	36110	31704	38116	
4044	0	36092	31696	38104	
4045	0	36078	31684	38120	
4046	0	36060	31684	38076	
4047	0	36048	31700	38104	
4048	0	36032	31672	38116	
4049	0	36024	31680	38108	
4050	0	36008	31693	38085	
4051	0	35988	31688	38088	
4052	0	35976	31729	38096	
4053	0	35968	31697	38101	
4054	0	35952	31712	38108	
4055	0	35940	31708	38100	
4056	0	35920	31720	38088	
4057	0	35912	31704	38100	
4058	0	35892	31700	38100	
4059	0	35872	31680	38112	
4060	0	35860	31724	38084	
4061	0	35844	31688	38120	
4062	0	35836	31752	38112	
4063	0	35812	31736	38140	
4064	0	35801	31744	38088	
4065	0	35784	31720	38108	
4066	0	35772	31740	38140	
4067	0	35760	31736	38096	
4068	0	35744	31748	38108	
4069	0	35724	31744	38112	
4070	0	35704	31728	38124	
4071	0	35692	31745	38112	
4072	0	35688	31744	38104	
4073	0	35660	31736	38120	
4074	0	35640	31748	38096	
4075	0	35628	31732	38112	
4076	0	35612	31740	38116	
4077	0	35588	31744	38124	
4078	0	35572	31768	38129	
4079	0	35572	31733	38088	
4080	0	35544	31752	38132	
4081	0	35528	31761	38124	
4082	0	35512	31776	38112	
4083	0	35492	31732	38124	
4084	0	35477	31772	38104	
4085	0	35456	31740	38128	
4086	0	35440	31742	38140	
4087	0	35424	31760	38140	
4088	0	35404	31704	38092	
4089	0	35384	31808	38084	
4090	0	35364	31780	38180	
4091	0	35349	31777	38148	
4092	0	35328	31732	38112	
4093	0	35304	31785	38136	
4094	0	35296	31796	38124	
4095	0	35272	31816	38117	
4096	0	35252	31824	38136	
4097	0	35236	31828	38140	
4098	0	35220	31792	38148	
4099	0	35196	31824	38136	
4100	0	35172	31832	38128	
4101	0	35160	31808	38116	
4102	0	35140	31784	38100	
4103	0	35120	31800	38100	
4104	0	35096	31788	38116	
4105	0	35080	31852	38173	
4106	0	35060	31789	38176	
4107	0	35044	31804	38137	
4108	0	35020	31800	38116	
4109	0	34998	31768	38120	
4110	0	34984	31802	38112	
4111	0	34957	31788	38132	
4112	0	34940	31817	38124	
4113	0	34917	31824	38112	
4114	0	34904	31800	38100	
4115	0	34880	31836	38133	
4116	0	34860	31804	38149	
4117	0	34840	31784	38137	
4118	0	34816	31777	38120	
4119	0	34796	31860	38101	
4120	0	34772	31876	38168	
4121	0	34752	31872	38136	
4122	0	34728	31864	38120	
4123	0	34720	31848	38172	
4124	0	34692	31868	38169	
4125	0	34670	31868	38136	
4126	0	34656	31868	38168	
4127	0	34632	31872	38140	
4128	0	34608	31872	38112	
4129	0	34588	31856	38120	
4130	0	34560	31872	38126	
4131	0	34552	31844	38136	
4132	0	34524	31864	38125	
4133	0	34504	31852	38116	
4134	0	34484	31873	38116	
4135	0	34464	31868	38128	
4136	0	34448	31868	38104	
4137	0	34420	31880	38128	
4138	0	34392	31860	38096	
4139	0	34376	31857	38128	
4140	0	34360	31889	38132	
4141	0	34336	31881	38112	
4142	0	34316	31877	38124	
4143	0	34292	31896	38148	
4144	0	34265	31900	38160	
4145	0	34256	31908	38132	
4146	0	34224	31900	38108	
4147	0	34205	31916	38096	
4148	0	34184	31908	38136	
4149	0	34164	31900	38112	
4150	0	34144	31920	38152	
4151	0	34116	31932	38128	
4152	0	34100	31908	38120	
4153	0	34084	31928	38128	
4154	0	34060	31928	38136	
4155	0	34036	31900	38136	
4156	0	34016	31928	38112	
4157	0	33988	31928	38132	
4158	0	33972	31912	38144	
4159	0	33952	31925	38117	
4160	0	33928	31908	38124	
4161	0	33906	31920	38120	
4162	0	33888	31933	38104	
4163	0	33872	31930	38104	
4164	0	33840	31904	38104	
4165	0	33820	31893	38144	
4166	0	33804	31916	38124	
4167	0	33772	31940	38104	
4168	0	33752	31956	38112	
4169	0	33729	31944	38152	
4170	0	33712	31948	38140	
4171	0	33688	31938	38112	
4172	0	33668	31932	38133	
4173	0	33644	31964	38108	
4174	0	33624	31960	38129	
4175	0	33600	31980	38128	
4176	0	33580	31969	38132	
4177	0	33556	31980	38108	
4178	0	33530	31964	38136	
4179	0	33512	31944	38128	
4180	0	33484	31976	38124	
4181	0	33456	31956	38140	
4182	0	33440	31953	38113	
4183	0	33416	31956	38132	
4184	0	33396	31956	38132	
4185	0	33380	31952	38124	
4186	0	33356	31968	38140	
4187	0	33324	31960	38104	
4188	0	33304	31948	38120	
4189	0	33280	31940	38117	
4190	0	33256	31960	38132	
4191	0	33236	31972	38116	
4192	0	33212	31980	38148	
4193	0	33188	31984	38157	
4194	0	33169	31932	38124	
4195	0	33141	31920	38136	
4196	0	33124	31912	38124	
4197	0	33096	31956	38120	
4198	0	33076	31936	38124	
4199	0	33052	31952	38136	
4200	0	33032	31960	38096	
4201	0	33002	31942	38124	
4202	0	32984	31952	38128	
4203	0	32960	31958	38096	
4204	0	32940	31940	38093	
4205	0	32916	31968	38132	
4206	0	32896	31932	38124	
4207	0	32868	31949	38120	
4208	0	32856	31956	38116	
4209	0	32832	31940	38144	
4210	0	32802	31936	38132	
4211	0	32784	31932	38141	
4212	0	32752	31988	38116	
4213	0	32740	31978	38160	
4214	0	32716	31976	38128	
4215	0	32696	31973	38153	
4216	0	32672	31972	38144	
4217	0	32645	31968	38132	
4218	0	32620	31972	38152	
4219	0	32604	31980	38136	
4220	0	32580	31988	38132	
4221	0	32556	31984	38132	
4222	0	32540	31984	38160	
4223	0	32516	31984	38152	
4224	0	32500	31956	38140	
4225	0	32481	31976	38132	
4226	0	32452	31976	38117	
4227	0	32433	31976	38117	
4228	0	32416	31984	38124	
4229	0	32396	31972	38128	
4230	0	32380	31980	38116	
4231	0	32348	31968	38112	
4232	0	32344	31964	38108	
4233	0	32320	31984	38124	
4234	0	32288	31992	38120	
4235	0	32277	31968	38149	
4236	0	32264	31964	38124	
4237	0	32240	32021	38128	
4238	0	32220	32008	38148	
4239	0	32196	32000	38132	
4240	0	32176	31993	38108	
4241	0	32164	32008	38128	
4242	0	32152	32004	38108	
4243	0	32132	32000	38128	
4244	0	32108	31996	38124	
4245	0	32100	32008	38120	
4246	0	32080	32009	38132	
4247	0	32064	32008	38128	
4248	0	32044	31992	38112	
4249	0	32032	32008	38084	
4250	0	32008	32004	38132	
4251	0	31996	32004	38104	
4252	0	31972	32004	38120	
4253	0	31968	32000	38140	
4254	0	31944	31996	38092	
4255	0	31928	32000	38124	
4256	0	31912	32016	38116	
4257	0	31892	32013	38112	
4258	0	31884	32005	38112	
4259	0	31864	31992	38140	
4260	0	31904	32024	38144	
4261	0	31828	32016	38128	
4262	0	31816	31984	38100	
4263	0	31800	32008	38124	
4264	0	31780	32016	38124	
4265	0	31764	32008	38113	
4266	0	31744	32016	38112	
4267	0	31728	32020	38136	
4268	0	31712	32000	38125	
4269	0	31696	32072	38148	
4270	0	31676	32032	38176	
4271	0	31668	31988	38056	
4272	0	31645	31972	38080	
4273	0	31624	32012	38157	
4274	0	31616	32032	38125	
4275	0	31589	31988	38124	
4276	0	31576	32000	38116	
4277	0	31564	32020	38116	
4278	0	31540	32048	38088	
4279	0	31528	32020	38100	
4280	0	31512	32024	38132	
4281	0	31496	32028	38112	
4282	0	31476	32006	38092	
4283	0	31456	32028	38132	
4284	0	31442	32044	38145	
4285	0	31424	32048	38116	
4286	0	31408	32008	38124	
4287	0	31388	32045	38100	
4288	0	31376	32016	38092	
4289	0	31353	32036	38088	
4290	0	31332	32020	38120	
4291	0	31320	32004	38128	
4292	0	31305	32012	38124	
4293	0	31284	32016	38128	
4294	0	31272	32032	38104	
4295	0	31252	32040	38104	
4296	0	31240	32025	38116	
4297	0	31216	32016	38140	
4298	0	31204	32048	38104	
4299	0	31180	32026	38108	
4300	0	31177	32012	38108	
4301	0	31148	32056	38104	
4302	0	31136	32048	38080	
4303	0	31120	32040	38112	
4304	0	31104	32052	38100	
4305	0	31078	32036	38116	
4306	0	31072	32029	38132	
4307	0	31048	32040	38104	
4308	0	31040	32040	38120	
4309	0	31016	32021	38104	
4310	0	31008	32008	38124	
4311	0	30996	32016	38136	
4312	0	30973	32012	38136	
4313	0	30957	32033	38108	
4314	0	30948	32057	38096	
4315	0	30928	32060	38088	
4316	0	30912	32048	38132	
4317	0	30892	32028	38112	
4318	0	30884	32020	38112	
4319	0	30872	32044	38089	
4320	0	30856	32032	38112	
4321	0	30840	32044	38112	
4322	0	30828	32044	38120	
4323	0	30812	32036	38136	
4324	0	30796	32044	38120	
4325	0	30780	32044	38104	
4326	0	30773	32033	38104	
4327	0	30758	32052	38120	
4328	0	30741	32052	38096	
4329	0	30728	32044	38116	
4330	0	30720	32038	38128	
4331	0	30700	32056	38144	
4332	0	30688	32054	38148	
4333	0	30680	32052	38164	
4334	0	30664	32048	38128	
4335	0	30648	32029	38132	
4336	0	30640	32032	38112	
4337	0	30624	32048	38108	
4338	0	30608	32032	38120	
4339	0	30601	32053	38126	
4340	0	30608	32045	38128	
4341	0	30580	32044	38136	
4342	0	30560	32044	38108	
4343	0	30548	32056	38120	
4344	0	30532	32024	38144	
4345	0	30524	32044	38124	
4346	0	30512	32037	38136	
4347	0	30505	32052	38120	
4348	0	30492	32040	38112	
4349	0	30476	32041	38136	
4350	0	30468	32042	38112	
4351	0	30456	32032	38090	
4352	0	30448	32048	38113	
4353	0	30432	32056	38124	
4354	0	30418	32029	38120	
4355	0	30413	32056	38140	
4356	0	30406	32040	38090	
4357	0	30392	32036	38116	
4358	0	30384	32044	38116	
4359	0	30372	32044	38149	
4360	0	30366	32033	38104	
4361	0	30360	32060	38108	
4362	0	30345	32048	38112	
4363	0	30336	32064	38112	
4364	0	30324	32044	38117	
4365	0	30324	32040	38108	
4366	0	30312	32056	38126	
4367	0	30305	32028	38128	
4368	0	30304	32056	38128	
4369	0	30292	32048	38112	
4370	0	30290	32036	38124	
4371	0	30276	32044	38136	
4372	0	30272	32048	38104	
4373	0	30260	32050	38144	
4374	0	30256	32064	38112	
4375	0	30256	32036	38124	
4376	0	30244	32040	38132	
4377	0	30244	32034	38120	
4378	0	30240	32021	38124	
4379	0	30226	32048	38104	
4380	0	30228	32084	38124	
4381	0	30224	32060	38124	
4382	0	30216	32048	38128	
4383	0	30216	32048	38100	
4384	0	30216	32048	38136	
4385	0	30208	32064	38080	
4386	0	30200	32048	38104	
4387	0	30198	32057	38136	
4388	0	30204	32040	38121	
4389	0	30192	32057	38132	
4390	0	30192	32025	38118	
4391	0	30181	32056	38096	
4392	0	30180	32044	38108	
4393	0	30181	32052	38100	
4394	0	30178	32052	38120	
4395	0	30180	32024	38132	
4396	0	30176	32052	38116	
4397	0	30168	32024	38112	
4398	0	30176	32044	38124	
4399	0	30164	32052	38132	
4400	0	30168	32024	38124	
4401	0	30164	32028	38112	
4402	0	30164	32048	38120	
4403	0	30160	32034	38120	
4404	0	30164	32052	38088	
4405	0	30156	32032	38136	
4406	0	30152	32040	38164	
4407	0	30158	32032	38124	
4408	0	30152	32032	38108	
4409	0	30148	32052	38152	
4410	0	30152	32084	38116	
4411	0	30148	32049	38136	
4412	0	30148	32040	38122	
4413	0	30144	32032	38120	
4414	0	30145	32008	38136	
4415	0	30144	32024	38108	
4416	0	30144	32049	38104	
4417	0	30137	32048	38128	
4418	0	30144	32012	38130	
4419	0	30140	32033	38132	
4420	0	30144	32028	38112	
4421	0	30138	32032	38132	
4422	0	30140	32036	38124	
4423	0	30132	32040	38116	
4424	0	30138	32032	38109	
4425	0	30132	32052	38128	
4426	0	30136	32048	38125	
4427	0	30144	32041	38128	
4428	0	30136	32036	38145	
4429	0	30136	32032	38104	
4430	0	30138	32048	38124	
4431	0	30132	32029	38104	
4432	0	30136	32028	38132	
4433	0	30132	32040	38124	
4434	0	30134	32033	38152	
4435	0	30136	32048	38109	
4436	0	30128	32054	38104	
4437	0	30144	32048	38112	
4438	0	30136	32060	38144	
4439	0	30138	32056	38132	
4440	0	30140	32044	38136	
4441	0	30144	32029	38100	
4442	0	30140	32041	38084	
4443	0	30145	32048	38120	
4444	0	30140	32052	38117	
4445	0	30144	32064	38120	
4446	0	30144	32048	38137	
4447	0	30148	32040	38108	
4448	0	30148	32044	38100	
4449	0	30152	32060	38128	
4450	0	30156	32052	38100	
4451	0	30160	32060	38156	
4452	0	30160	32008	38132	
